Time (ns)	Amplitude (dB)	
-1.00072081E+001	-1.20853027E+002	
-9.98649484E+000	-1.20520965E+002	
-9.96578154E+000	-1.20158464E+002	
-9.94506823E+000	-1.19888698E+002	
-9.92435493E+000	-1.19654316E+002	
-9.90364162E+000	-1.19409003E+002	
-9.88292832E+000	-1.19190205E+002	
-9.86221501E+000	-1.18976209E+002	
-9.84150171E+000	-1.18776032E+002	
-9.82078840E+000	-1.18593181E+002	
-9.80007509E+000	-1.18390515E+002	
-9.77936179E+000	-1.18186385E+002	
-9.75864848E+000	-1.18130146E+002	
-9.73793518E+000	-1.18140646E+002	
-9.71722187E+000	-1.18133007E+002	
-9.69650857E+000	-1.18128040E+002	
-9.67579526E+000	-1.18178059E+002	
-9.65508196E+000	-1.18161924E+002	
-9.63436865E+000	-1.18109234E+002	
-9.61365535E+000	-1.18112555E+002	
-9.59294204E+000	-1.18141701E+002	
-9.57222874E+000	-1.18163198E+002	
-9.55151543E+000	-1.18184445E+002	
-9.53080213E+000	-1.18174948E+002	
-9.51008882E+000	-1.18205815E+002	
-9.48937552E+000	-1.18231115E+002	
-9.46866221E+000	-1.18236754E+002	
-9.44794890E+000	-1.18211398E+002	
-9.42723560E+000	-1.18169914E+002	
-9.40652229E+000	-1.18166532E+002	
-9.38580899E+000	-1.18143211E+002	
-9.36509568E+000	-1.18134208E+002	
-9.34438238E+000	-1.18098700E+002	
-9.32366907E+000	-1.18074186E+002	
-9.30295577E+000	-1.18074308E+002	
-9.28224246E+000	-1.18097770E+002	
-9.26152916E+000	-1.18051402E+002	
-9.24081585E+000	-1.17995666E+002	
-9.22010255E+000	-1.17983888E+002	
-9.19938924E+000	-1.18025070E+002	
-9.17867594E+000	-1.18010666E+002	
-9.15796263E+000	-1.18011464E+002	
-9.13724932E+000	-1.18073422E+002	
-9.11653602E+000	-1.18080812E+002	
-9.09582271E+000	-1.18034503E+002	
-9.07510941E+000	-1.18048918E+002	
-9.05439610E+000	-1.18051254E+002	
-9.03368280E+000	-1.17927417E+002	
-9.01296949E+000	-1.17909416E+002	
-8.99225619E+000	-1.17912236E+002	
-8.97154288E+000	-1.17955471E+002	
-8.95082958E+000	-1.17973950E+002	
-8.93011627E+000	-1.17998815E+002	
-8.90940297E+000	-1.18021115E+002	
-8.88868966E+000	-1.18052433E+002	
-8.86797636E+000	-1.18044398E+002	
-8.84726305E+000	-1.18064263E+002	
-8.82654974E+000	-1.18052098E+002	
-8.80583644E+000	-1.18060422E+002	
-8.78512313E+000	-1.18060335E+002	
-8.76440983E+000	-1.18074003E+002	
-8.74369652E+000	-1.18135003E+002	
-8.72298322E+000	-1.18157074E+002	
-8.70226991E+000	-1.18092564E+002	
-8.68155661E+000	-1.18063124E+002	
-8.66084330E+000	-1.18097386E+002	
-8.64013000E+000	-1.18058727E+002	
-8.61941669E+000	-1.18012378E+002	
-8.59870339E+000	-1.18053715E+002	
-8.57799008E+000	-1.18049886E+002	
-8.55727678E+000	-1.18010750E+002	
-8.53656347E+000	-1.18125539E+002	
-8.51585017E+000	-1.18153235E+002	
-8.49513686E+000	-1.18156625E+002	
-8.47442355E+000	-1.18143049E+002	
-8.45371025E+000	-1.18172412E+002	
-8.43299694E+000	-1.18208951E+002	
-8.41228364E+000	-1.18178299E+002	
-8.39157033E+000	-1.18147378E+002	
-8.37085703E+000	-1.18192355E+002	
-8.35014372E+000	-1.18205873E+002	
-8.32943042E+000	-1.18217508E+002	
-8.30871711E+000	-1.18172172E+002	
-8.28800381E+000	-1.18209526E+002	
-8.26729050E+000	-1.18197181E+002	
-8.24657720E+000	-1.18194367E+002	
-8.22586389E+000	-1.18170167E+002	
-8.20515059E+000	-1.18212279E+002	
-8.18443728E+000	-1.18209878E+002	
-8.16372397E+000	-1.18199061E+002	
-8.14301067E+000	-1.18159820E+002	
-8.12229736E+000	-1.18179751E+002	
-8.10158406E+000	-1.18171626E+002	
-8.08087075E+000	-1.18167553E+002	
-8.06015745E+000	-1.18143211E+002	
-8.03944414E+000	-1.18084730E+002	
-8.01873084E+000	-1.18096204E+002	
-7.99801753E+000	-1.18079265E+002	
-7.97730423E+000	-1.18073388E+002	
-7.95659092E+000	-1.18044495E+002	
-7.93587762E+000	-1.18057921E+002	
-7.91516431E+000	-1.18090020E+002	
-7.89445101E+000	-1.18092008E+002	
-7.87373770E+000	-1.18074545E+002	
-7.85302439E+000	-1.18070361E+002	
-7.83231109E+000	-1.18053429E+002	
-7.81159778E+000	-1.18113797E+002	
-7.79088448E+000	-1.18139202E+002	
-7.77017117E+000	-1.18159850E+002	
-7.74945787E+000	-1.18171965E+002	
-7.72874456E+000	-1.18183342E+002	
-7.70803126E+000	-1.18143154E+002	
-7.68731795E+000	-1.18174435E+002	
-7.66660465E+000	-1.18159528E+002	
-7.64589134E+000	-1.18156294E+002	
-7.62517804E+000	-1.18142016E+002	
-7.60446473E+000	-1.18083796E+002	
-7.58375143E+000	-1.18099305E+002	
-7.56303812E+000	-1.18131811E+002	
-7.54232482E+000	-1.18201009E+002	
-7.52161151E+000	-1.18191652E+002	
-7.50089820E+000	-1.18202682E+002	
-7.48018490E+000	-1.18171080E+002	
-7.45947159E+000	-1.18215794E+002	
-7.43875829E+000	-1.18147630E+002	
-7.41804498E+000	-1.18064645E+002	
-7.39733168E+000	-1.18111356E+002	
-7.37661837E+000	-1.18121609E+002	
-7.35590507E+000	-1.18126854E+002	
-7.33519176E+000	-1.18149551E+002	
-7.31447846E+000	-1.18165542E+002	
-7.29376515E+000	-1.18138970E+002	
-7.27305185E+000	-1.18110502E+002	
-7.25233854E+000	-1.18138364E+002	
-7.23162524E+000	-1.18154906E+002	
-7.21091193E+000	-1.18153322E+002	
-7.19019862E+000	-1.18152678E+002	
-7.16948532E+000	-1.18203413E+002	
-7.14877201E+000	-1.18280718E+002	
-7.12805871E+000	-1.18337051E+002	
-7.10734540E+000	-1.18402761E+002	
-7.08663210E+000	-1.18435197E+002	
-7.06591879E+000	-1.18410606E+002	
-7.04520549E+000	-1.18398012E+002	
-7.02449218E+000	-1.18376314E+002	
-7.00377888E+000	-1.18343678E+002	
-6.98306557E+000	-1.18384763E+002	
-6.96235227E+000	-1.18343879E+002	
-6.94163896E+000	-1.18370340E+002	
-6.92092566E+000	-1.18446504E+002	
-6.90021235E+000	-1.18433688E+002	
-6.87949904E+000	-1.18402725E+002	
-6.85878574E+000	-1.18387711E+002	
-6.83807243E+000	-1.18412732E+002	
-6.81735913E+000	-1.18424836E+002	
-6.79664582E+000	-1.18377404E+002	
-6.77593252E+000	-1.18412388E+002	
-6.75521921E+000	-1.18363535E+002	
-6.73450591E+000	-1.18348000E+002	
-6.71379260E+000	-1.18316248E+002	
-6.69307930E+000	-1.18305740E+002	
-6.67236599E+000	-1.18260901E+002	
-6.65165269E+000	-1.18241176E+002	
-6.63093938E+000	-1.18261986E+002	
-6.61022608E+000	-1.18285875E+002	
-6.58951277E+000	-1.18281930E+002	
-6.56879947E+000	-1.18272295E+002	
-6.54808616E+000	-1.18259395E+002	
-6.52737285E+000	-1.18238244E+002	
-6.50665955E+000	-1.18266164E+002	
-6.48594624E+000	-1.18315934E+002	
-6.46523294E+000	-1.18359532E+002	
-6.44451963E+000	-1.18295889E+002	
-6.42380633E+000	-1.18244437E+002	
-6.40309302E+000	-1.18245109E+002	
-6.38237972E+000	-1.18216972E+002	
-6.36166641E+000	-1.18213414E+002	
-6.34095311E+000	-1.18211617E+002	
-6.32023980E+000	-1.18202356E+002	
-6.29952650E+000	-1.18215823E+002	
-6.27881319E+000	-1.18190707E+002	
-6.25809989E+000	-1.18206610E+002	
-6.23738658E+000	-1.18205755E+002	
-6.21667327E+000	-1.18195411E+002	
-6.19595997E+000	-1.18211403E+002	
-6.17524666E+000	-1.18206089E+002	
-6.15453336E+000	-1.18204214E+002	
-6.13382005E+000	-1.18181574E+002	
-6.11310675E+000	-1.18183959E+002	
-6.09239344E+000	-1.18178527E+002	
-6.07168014E+000	-1.18129540E+002	
-6.05096683E+000	-1.18196476E+002	
-6.03025353E+000	-1.18214002E+002	
-6.00954022E+000	-1.18199343E+002	
-5.98882692E+000	-1.18143900E+002	
-5.96811361E+000	-1.18146452E+002	
-5.94740031E+000	-1.18186035E+002	
-5.92668700E+000	-1.18226089E+002	
-5.90597369E+000	-1.18237027E+002	
-5.88526039E+000	-1.18280310E+002	
-5.86454708E+000	-1.18302710E+002	
-5.84383378E+000	-1.18270656E+002	
-5.82312047E+000	-1.18300500E+002	
-5.80240717E+000	-1.18275661E+002	
-5.78169386E+000	-1.18295101E+002	
-5.76098056E+000	-1.18291518E+002	
-5.74026725E+000	-1.18280463E+002	
-5.71955395E+000	-1.18323969E+002	
-5.69884064E+000	-1.18329619E+002	
-5.67812734E+000	-1.18359501E+002	
-5.65741403E+000	-1.18352895E+002	
-5.63670073E+000	-1.18358875E+002	
-5.61598742E+000	-1.18327760E+002	
-5.59527412E+000	-1.18295518E+002	
-5.57456081E+000	-1.18369075E+002	
-5.55384750E+000	-1.18285158E+002	
-5.53313420E+000	-1.18210821E+002	
-5.51242089E+000	-1.18223075E+002	
-5.49170759E+000	-1.18223067E+002	
-5.47099428E+000	-1.18199080E+002	
-5.45028098E+000	-1.18256882E+002	
-5.42956767E+000	-1.18300348E+002	
-5.40885437E+000	-1.18285969E+002	
-5.38814106E+000	-1.18275622E+002	
-5.36742776E+000	-1.18260841E+002	
-5.34671445E+000	-1.18295324E+002	
-5.32600115E+000	-1.18283767E+002	
-5.30528784E+000	-1.18291957E+002	
-5.28457454E+000	-1.18259332E+002	
-5.26386123E+000	-1.18255476E+002	
-5.24314792E+000	-1.18198102E+002	
-5.22243462E+000	-1.18154108E+002	
-5.20172131E+000	-1.18158511E+002	
-5.18100801E+000	-1.18116534E+002	
-5.16029470E+000	-1.18113131E+002	
-5.13958140E+000	-1.18075516E+002	
-5.11886809E+000	-1.18059015E+002	
-5.09815479E+000	-1.18062837E+002	
-5.07744148E+000	-1.18018376E+002	
-5.05672818E+000	-1.18078065E+002	
-5.03601487E+000	-1.18096223E+002	
-5.01530157E+000	-1.18129138E+002	
-4.99458826E+000	-1.18136999E+002	
-4.97387496E+000	-1.18096917E+002	
-4.95316165E+000	-1.18088779E+002	
-4.93244834E+000	-1.18044257E+002	
-4.91173504E+000	-1.18037012E+002	
-4.89102173E+000	-1.18033691E+002	
-4.87030843E+000	-1.18065438E+002	
-4.84959512E+000	-1.18053543E+002	
-4.82888182E+000	-1.18017181E+002	
-4.80816851E+000	-1.18017530E+002	
-4.78745521E+000	-1.18039161E+002	
-4.76674190E+000	-1.18062287E+002	
-4.74602860E+000	-1.18084361E+002	
-4.72531529E+000	-1.18143308E+002	
-4.70460199E+000	-1.18127310E+002	
-4.68388868E+000	-1.18171913E+002	
-4.66317538E+000	-1.18154135E+002	
-4.64246207E+000	-1.18181753E+002	
-4.62174877E+000	-1.18216034E+002	
-4.60103546E+000	-1.18258806E+002	
-4.58032215E+000	-1.18285372E+002	
-4.55960885E+000	-1.18266886E+002	
-4.53889554E+000	-1.18301404E+002	
-4.51818224E+000	-1.18232075E+002	
-4.49746893E+000	-1.18187728E+002	
-4.47675563E+000	-1.18226682E+002	
-4.45604232E+000	-1.18215077E+002	
-4.43532902E+000	-1.18217740E+002	
-4.41461571E+000	-1.18201899E+002	
-4.39390241E+000	-1.18219133E+002	
-4.37318910E+000	-1.18225606E+002	
-4.35247580E+000	-1.18192983E+002	
-4.33176249E+000	-1.18174757E+002	
-4.31104919E+000	-1.18167663E+002	
-4.29033588E+000	-1.18160122E+002	
-4.26962257E+000	-1.18156452E+002	
-4.24890927E+000	-1.18205984E+002	
-4.22819596E+000	-1.18221744E+002	
-4.20748266E+000	-1.18259786E+002	
-4.18676935E+000	-1.18214263E+002	
-4.16605605E+000	-1.18232303E+002	
-4.14534274E+000	-1.18255180E+002	
-4.12462944E+000	-1.18219390E+002	
-4.10391613E+000	-1.18207852E+002	
-4.08320283E+000	-1.18199218E+002	
-4.06248952E+000	-1.18190419E+002	
-4.04177622E+000	-1.18148053E+002	
-4.02106291E+000	-1.18183382E+002	
-4.00034961E+000	-1.18186484E+002	
-3.97963630E+000	-1.18153867E+002	
-3.95892299E+000	-1.18165903E+002	
-3.93820969E+000	-1.18144037E+002	
-3.91749638E+000	-1.18164260E+002	
-3.89678308E+000	-1.18130802E+002	
-3.87606977E+000	-1.18060885E+002	
-3.85535647E+000	-1.18067599E+002	
-3.83464316E+000	-1.18072335E+002	
-3.81392986E+000	-1.18066628E+002	
-3.79321655E+000	-1.18095424E+002	
-3.77250325E+000	-1.18029088E+002	
-3.75178994E+000	-1.18028632E+002	
-3.73107664E+000	-1.18035106E+002	
-3.71036333E+000	-1.17971858E+002	
-3.68965003E+000	-1.17998270E+002	
-3.66893672E+000	-1.18040684E+002	
-3.64822342E+000	-1.18007485E+002	
-3.62751011E+000	-1.18027185E+002	
-3.60679680E+000	-1.18028104E+002	
-3.58608350E+000	-1.18028612E+002	
-3.56537019E+000	-1.18049065E+002	
-3.54465689E+000	-1.18064937E+002	
-3.52394358E+000	-1.18092902E+002	
-3.50323028E+000	-1.18137237E+002	
-3.48251697E+000	-1.18172293E+002	
-3.46180367E+000	-1.18196993E+002	
-3.44109036E+000	-1.18216021E+002	
-3.42037706E+000	-1.18254520E+002	
-3.39966375E+000	-1.18287753E+002	
-3.37895045E+000	-1.18334241E+002	
-3.35823714E+000	-1.18324436E+002	
-3.33752384E+000	-1.18330312E+002	
-3.31681053E+000	-1.18337404E+002	
-3.29609722E+000	-1.18307115E+002	
-3.27538392E+000	-1.18328619E+002	
-3.25467061E+000	-1.18335770E+002	
-3.23395731E+000	-1.18322456E+002	
-3.21324400E+000	-1.18352217E+002	
-3.19253070E+000	-1.18345166E+002	
-3.17181739E+000	-1.18323918E+002	
-3.15110409E+000	-1.18298275E+002	
-3.13039078E+000	-1.18280992E+002	
-3.10967748E+000	-1.18317938E+002	
-3.08896417E+000	-1.18299962E+002	
-3.06825087E+000	-1.18287919E+002	
-3.04753756E+000	-1.18300449E+002	
-3.02682426E+000	-1.18263000E+002	
-3.00611095E+000	-1.18189761E+002	
-2.98539764E+000	-1.18231640E+002	
-2.96468434E+000	-1.18190112E+002	
-2.94397103E+000	-1.18161055E+002	
-2.92325773E+000	-1.18115146E+002	
-2.90254442E+000	-1.18112545E+002	
-2.88183112E+000	-1.18125437E+002	
-2.86111781E+000	-1.18176080E+002	
-2.84040451E+000	-1.18217009E+002	
-2.81969120E+000	-1.18250968E+002	
-2.79897790E+000	-1.18320788E+002	
-2.77826459E+000	-1.18279697E+002	
-2.75755129E+000	-1.18251094E+002	
-2.73683798E+000	-1.18262951E+002	
-2.71612468E+000	-1.18215593E+002	
-2.69541137E+000	-1.18197176E+002	
-2.67469807E+000	-1.18252667E+002	
-2.65398476E+000	-1.18271903E+002	
-2.63327145E+000	-1.18268571E+002	
-2.61255815E+000	-1.18210709E+002	
-2.59184484E+000	-1.18210760E+002	
-2.57113154E+000	-1.18205581E+002	
-2.55041823E+000	-1.18207006E+002	
-2.52970493E+000	-1.18267154E+002	
-2.50899162E+000	-1.18334643E+002	
-2.48827832E+000	-1.18314755E+002	
-2.46756501E+000	-1.18321161E+002	
-2.44685171E+000	-1.18321979E+002	
-2.42613840E+000	-1.18340566E+002	
-2.40542510E+000	-1.18352515E+002	
-2.38471179E+000	-1.18329073E+002	
-2.36399849E+000	-1.18300493E+002	
-2.34328518E+000	-1.18248914E+002	
-2.32257187E+000	-1.18200118E+002	
-2.30185857E+000	-1.18121787E+002	
-2.28114526E+000	-1.18137963E+002	
-2.26043196E+000	-1.18216308E+002	
-2.23971865E+000	-1.18206413E+002	
-2.21900535E+000	-1.18260683E+002	
-2.19829204E+000	-1.18287019E+002	
-2.17757874E+000	-1.18246845E+002	
-2.15686543E+000	-1.18235798E+002	
-2.13615213E+000	-1.18290729E+002	
-2.11543882E+000	-1.18297522E+002	
-2.09472552E+000	-1.18315310E+002	
-2.07401221E+000	-1.18284112E+002	
-2.05329891E+000	-1.18225941E+002	
-2.03258560E+000	-1.18229844E+002	
-2.01187229E+000	-1.18227214E+002	
-1.99115899E+000	-1.18232285E+002	
-1.97044568E+000	-1.18161877E+002	
-1.94973238E+000	-1.18180299E+002	
-1.92901907E+000	-1.18163276E+002	
-1.90830577E+000	-1.18119241E+002	
-1.88759246E+000	-1.18120027E+002	
-1.86687916E+000	-1.18153959E+002	
-1.84616585E+000	-1.18130264E+002	
-1.82545255E+000	-1.18207771E+002	
-1.80473924E+000	-1.18224752E+002	
-1.78402594E+000	-1.18264946E+002	
-1.76331263E+000	-1.18263522E+002	
-1.74259933E+000	-1.18210655E+002	
-1.72188602E+000	-1.18204256E+002	
-1.70117272E+000	-1.18275717E+002	
-1.68045941E+000	-1.18302019E+002	
-1.65974610E+000	-1.18257330E+002	
-1.63903280E+000	-1.18219051E+002	
-1.61831949E+000	-1.18277436E+002	
-1.59760619E+000	-1.18289129E+002	
-1.57689288E+000	-1.18306300E+002	
-1.55617958E+000	-1.18372267E+002	
-1.53546627E+000	-1.18358407E+002	
-1.51475297E+000	-1.18360535E+002	
-1.49403966E+000	-1.18336552E+002	
-1.47332636E+000	-1.18383521E+002	
-1.45261305E+000	-1.18349854E+002	
-1.43189975E+000	-1.18352359E+002	
-1.41118644E+000	-1.18349532E+002	
-1.39047314E+000	-1.18376185E+002	
-1.36975983E+000	-1.18338504E+002	
-1.34904652E+000	-1.18338324E+002	
-1.32833322E+000	-1.18294151E+002	
-1.30761991E+000	-1.18243387E+002	
-1.28690661E+000	-1.18249086E+002	
-1.26619330E+000	-1.18240276E+002	
-1.24548000E+000	-1.18292676E+002	
-1.22476669E+000	-1.18319086E+002	
-1.20405339E+000	-1.18215120E+002	
-1.18334008E+000	-1.18205178E+002	
-1.16262678E+000	-1.18271694E+002	
-1.14191347E+000	-1.18300100E+002	
-1.12120017E+000	-1.18295633E+002	
-1.10048686E+000	-1.18265841E+002	
-1.07977356E+000	-1.18264856E+002	
-1.05906025E+000	-1.18303324E+002	
-1.03834694E+000	-1.18285399E+002	
-1.01763364E+000	-1.18219425E+002	
-9.96920334E-001	-1.18129918E+002	
-9.76207029E-001	-1.18089133E+002	
-9.55493724E-001	-1.18108438E+002	
-9.34780418E-001	-1.18121351E+002	
-9.14067113E-001	-1.18163280E+002	
-8.93353808E-001	-1.18144875E+002	
-8.72640502E-001	-1.18125328E+002	
-8.51927197E-001	-1.18155667E+002	
-8.31213892E-001	-1.18185668E+002	
-8.10500586E-001	-1.18248904E+002	
-7.89787281E-001	-1.18267260E+002	
-7.69073976E-001	-1.18278651E+002	
-7.48360671E-001	-1.18264488E+002	
-7.27647365E-001	-1.18257886E+002	
-7.06934060E-001	-1.18292978E+002	
-6.86220755E-001	-1.18319141E+002	
-6.65507449E-001	-1.18349309E+002	
-6.44794144E-001	-1.18347167E+002	
-6.24080839E-001	-1.18308775E+002	
-6.03367533E-001	-1.18308867E+002	
-5.82654228E-001	-1.18286746E+002	
-5.61940923E-001	-1.18232070E+002	
-5.41227617E-001	-1.18188214E+002	
-5.20514312E-001	-1.18215421E+002	
-4.99801007E-001	-1.18317962E+002	
-4.79087701E-001	-1.18401033E+002	
-4.58374396E-001	-1.18433043E+002	
-4.37661091E-001	-1.18407439E+002	
-4.16947785E-001	-1.18388104E+002	
-3.96234480E-001	-1.18392283E+002	
-3.75521175E-001	-1.18394804E+002	
-3.54807869E-001	-1.18402687E+002	
-3.34094564E-001	-1.18407301E+002	
-3.13381259E-001	-1.18421100E+002	
-2.92667954E-001	-1.18411790E+002	
-2.71954648E-001	-1.18376320E+002	
-2.51241343E-001	-1.08075736E+002	
-2.30528038E-001	-1.07730986E+002	
-2.09814732E-001	-1.07729969E+002	
-1.89101427E-001	-1.07723181E+002	
-1.68388122E-001	-1.07712406E+002	
-1.47674816E-001	-1.07708218E+002	
-1.26961511E-001	-1.07707152E+002	
-1.06248206E-001	-1.07695511E+002	
-8.55349003E-002	-1.07694011E+002	
-6.48215950E-002	-1.07692618E+002	
-4.41082897E-002	-1.07695532E+002	
-2.33949844E-002	-1.07693394E+002	
-2.68167905E-003	-1.07691162E+002	
1.80316263E-002	-1.07683694E+002	
3.87449316E-002	-1.07678996E+002	
5.94582369E-002	-1.07678481E+002	
8.01715422E-002	-1.07681236E+002	
1.00884848E-001	-1.07679809E+002	
1.21598153E-001	-1.07672825E+002	
1.42311458E-001	-1.07668354E+002	
1.63024763E-001	-1.07666233E+002	
1.83738069E-001	-1.07660632E+002	
2.04451374E-001	-1.07653758E+002	
2.25164679E-001	-1.07654389E+002	
2.45877985E-001	-1.12746613E+002	
2.66591290E-001	-1.17572903E+002	
2.87304595E-001	-1.17564127E+002	
3.08017901E-001	-1.17613844E+002	
3.28731206E-001	-1.17652621E+002	
3.49444511E-001	-1.17668239E+002	
3.70157817E-001	-1.17692743E+002	
3.90871122E-001	-1.17780213E+002	
4.11584427E-001	-1.17747902E+002	
4.32297733E-001	-1.17729353E+002	
4.53011038E-001	-1.17736535E+002	
4.73724343E-001	-1.17758599E+002	
4.94437649E-001	-1.17750452E+002	
5.15150954E-001	-1.17785638E+002	
5.35864259E-001	-1.17790672E+002	
5.56577565E-001	-1.17832861E+002	
5.77290870E-001	-1.17766104E+002	
5.98004175E-001	-1.17741065E+002	
6.18717481E-001	-1.17785337E+002	
6.39430786E-001	-1.17814772E+002	
6.60144091E-001	-1.17795221E+002	
6.80857396E-001	-1.17836459E+002	
7.01570702E-001	-1.17850459E+002	
7.22284007E-001	-1.17847656E+002	
7.42997312E-001	-1.17812138E+002	
7.63710618E-001	-1.17802116E+002	
7.84423923E-001	-1.17780533E+002	
8.05137228E-001	-1.17754080E+002	
8.25850534E-001	-1.17746104E+002	
8.46563839E-001	-1.17717856E+002	
8.67277144E-001	-1.17697281E+002	
8.87990450E-001	-1.17683634E+002	
9.08703755E-001	-1.17773813E+002	
9.29417060E-001	-1.17830459E+002	
9.50130366E-001	-1.17845910E+002	
9.70843671E-001	-1.17793697E+002	
9.91556976E-001	-1.17786490E+002	
1.01227028E+000	-1.17802222E+002	
1.03298359E+000	-1.17806679E+002	
1.05369689E+000	-1.17773205E+002	
1.07441020E+000	-1.17787745E+002	
1.09512350E+000	-1.17790566E+002	
1.11583681E+000	-1.17848348E+002	
1.13655011E+000	-1.17843392E+002	
1.15726342E+000	-1.17840731E+002	
1.17797672E+000	-1.17803008E+002	
1.19869003E+000	-1.17853475E+002	
1.21940333E+000	-1.17838832E+002	
1.24011664E+000	-1.17857927E+002	
1.26082995E+000	-1.17840135E+002	
1.28154325E+000	-1.17843155E+002	
1.30225656E+000	-1.17840324E+002	
1.32296986E+000	-1.17831869E+002	
1.34368317E+000	-1.17847033E+002	
1.36439647E+000	-1.17908541E+002	
1.38510978E+000	-1.17905059E+002	
1.40582308E+000	-1.17851429E+002	
1.42653639E+000	-1.17831126E+002	
1.44724969E+000	-1.17795371E+002	
1.46796300E+000	-1.17806834E+002	
1.48867630E+000	-1.17828784E+002	
1.50938961E+000	-1.17836047E+002	
1.53010291E+000	-1.17835172E+002	
1.55081622E+000	-1.17843906E+002	
1.57152953E+000	-1.17859000E+002	
1.59224283E+000	-1.17830304E+002	
1.61295614E+000	-1.17784297E+002	
1.63366944E+000	-1.17729818E+002	
1.65438275E+000	-1.17709347E+002	
1.67509605E+000	-1.17699512E+002	
1.69580936E+000	-1.17639232E+002	
1.71652266E+000	-1.17651068E+002	
1.73723597E+000	-1.17594516E+002	
1.75794927E+000	-1.17566042E+002	
1.77866258E+000	-1.17594752E+002	
1.79937588E+000	-1.17628898E+002	
1.82008919E+000	-1.17664490E+002	
1.84080249E+000	-1.17673091E+002	
