Time (ns)	Amplitude (dB)	
-1.00072081E+001	-1.20748724E+002	
-9.98649484E+000	-1.20419466E+002	
-9.96578154E+000	-1.20071006E+002	
-9.94506823E+000	-1.19813385E+002	
-9.92435493E+000	-1.19582889E+002	
-9.90364162E+000	-1.19340238E+002	
-9.88292832E+000	-1.19122863E+002	
-9.86221501E+000	-1.18910870E+002	
-9.84150171E+000	-1.18711486E+002	
-9.82078840E+000	-1.18531228E+002	
-9.80007509E+000	-1.18328816E+002	
-9.77936179E+000	-1.18128449E+002	
-9.75864848E+000	-1.18076885E+002	
-9.73793518E+000	-1.18090324E+002	
-9.71722187E+000	-1.18089549E+002	
-9.69650857E+000	-1.18094036E+002	
-9.67579526E+000	-1.18158271E+002	
-9.65508196E+000	-1.18144074E+002	
-9.63436865E+000	-1.18090030E+002	
-9.61365535E+000	-1.18092863E+002	
-9.59294204E+000	-1.18121179E+002	
-9.57222874E+000	-1.18144413E+002	
-9.55151543E+000	-1.18164443E+002	
-9.53080213E+000	-1.18158106E+002	
-9.51008882E+000	-1.18192004E+002	
-9.48937552E+000	-1.18216035E+002	
-9.46866221E+000	-1.18213556E+002	
-9.44794890E+000	-1.18180384E+002	
-9.42723560E+000	-1.18131794E+002	
-9.40652229E+000	-1.18126974E+002	
-9.38580899E+000	-1.18099882E+002	
-9.36509568E+000	-1.18087809E+002	
-9.34438238E+000	-1.18049787E+002	
-9.32366907E+000	-1.18024431E+002	
-9.30295577E+000	-1.18021566E+002	
-9.28224246E+000	-1.18041695E+002	
-9.26152916E+000	-1.17989473E+002	
-9.24081585E+000	-1.17935071E+002	
-9.22010255E+000	-1.17920768E+002	
-9.19938924E+000	-1.17957115E+002	
-9.17867594E+000	-1.17940238E+002	
-9.15796263E+000	-1.17938298E+002	
-9.13724932E+000	-1.17998588E+002	
-9.11653602E+000	-1.18006571E+002	
-9.09582271E+000	-1.17958837E+002	
-9.07510941E+000	-1.17963959E+002	
-9.05439610E+000	-1.17965539E+002	
-9.03368280E+000	-1.17840900E+002	
-9.01296949E+000	-1.17827350E+002	
-8.99225619E+000	-1.17832214E+002	
-8.97154288E+000	-1.17880629E+002	
-8.95082958E+000	-1.17894463E+002	
-8.93011627E+000	-1.17920830E+002	
-8.90940297E+000	-1.17942228E+002	
-8.88868966E+000	-1.17971134E+002	
-8.86797636E+000	-1.17966825E+002	
-8.84726305E+000	-1.17986974E+002	
-8.82654974E+000	-1.17972900E+002	
-8.80583644E+000	-1.17989922E+002	
-8.78512313E+000	-1.17992205E+002	
-8.76440983E+000	-1.18008012E+002	
-8.74369652E+000	-1.18063579E+002	
-8.72298322E+000	-1.18083495E+002	
-8.70226991E+000	-1.18011274E+002	
-8.68155661E+000	-1.17973610E+002	
-8.66084330E+000	-1.18008075E+002	
-8.64013000E+000	-1.17978466E+002	
-8.61941669E+000	-1.17931852E+002	
-8.59870339E+000	-1.17973257E+002	
-8.57799008E+000	-1.17979053E+002	
-8.55727678E+000	-1.17940176E+002	
-8.53656347E+000	-1.18056501E+002	
-8.51585017E+000	-1.18080142E+002	
-8.49513686E+000	-1.18083408E+002	
-8.47442355E+000	-1.18067146E+002	
-8.45371025E+000	-1.18097303E+002	
-8.43299694E+000	-1.18137615E+002	
-8.41228364E+000	-1.18105035E+002	
-8.39157033E+000	-1.18080822E+002	
-8.37085703E+000	-1.18125156E+002	
-8.35014372E+000	-1.18139404E+002	
-8.32943042E+000	-1.18151483E+002	
-8.30871711E+000	-1.18103122E+002	
-8.28800381E+000	-1.18135278E+002	
-8.26729050E+000	-1.18113406E+002	
-8.24657720E+000	-1.18109091E+002	
-8.22586389E+000	-1.18088499E+002	
-8.20515059E+000	-1.18136935E+002	
-8.18443728E+000	-1.18142041E+002	
-8.16372397E+000	-1.18130266E+002	
-8.14301067E+000	-1.18079165E+002	
-8.12229736E+000	-1.18096053E+002	
-8.10158406E+000	-1.18091088E+002	
-8.08087075E+000	-1.18081733E+002	
-8.06015745E+000	-1.18056488E+002	
-8.03944414E+000	-1.18001470E+002	
-8.01873084E+000	-1.18009399E+002	
-7.99801753E+000	-1.17985626E+002	
-7.97730423E+000	-1.17982028E+002	
-7.95659092E+000	-1.17956312E+002	
-7.93587762E+000	-1.17967624E+002	
-7.91516431E+000	-1.18006036E+002	
-7.89445101E+000	-1.18000894E+002	
-7.87373770E+000	-1.17977110E+002	
-7.85302439E+000	-1.17973206E+002	
-7.83231109E+000	-1.17964371E+002	
-7.81159778E+000	-1.18020694E+002	
-7.79088448E+000	-1.18045682E+002	
-7.77017117E+000	-1.18067308E+002	
-7.74945787E+000	-1.18086091E+002	
-7.72874456E+000	-1.18097407E+002	
-7.70803126E+000	-1.18054433E+002	
-7.68731795E+000	-1.18079179E+002	
-7.66660465E+000	-1.18068376E+002	
-7.64589134E+000	-1.18074257E+002	
-7.62517804E+000	-1.18062945E+002	
-7.60446473E+000	-1.17999693E+002	
-7.58375143E+000	-1.18017405E+002	
-7.56303812E+000	-1.18051419E+002	
-7.54232482E+000	-1.18117976E+002	
-7.52161151E+000	-1.18114111E+002	
-7.50089820E+000	-1.18134817E+002	
-7.48018490E+000	-1.18108749E+002	
-7.45947159E+000	-1.18146592E+002	
-7.43875829E+000	-1.18081535E+002	
-7.41804498E+000	-1.17990806E+002	
-7.39733168E+000	-1.18042311E+002	
-7.37661837E+000	-1.18056580E+002	
-7.35590507E+000	-1.18063454E+002	
-7.33519176E+000	-1.18079883E+002	
-7.31447846E+000	-1.18093159E+002	
-7.29376515E+000	-1.18071191E+002	
-7.27305185E+000	-1.18046231E+002	
-7.25233854E+000	-1.18075659E+002	
-7.23162524E+000	-1.18092284E+002	
-7.21091193E+000	-1.18089820E+002	
-7.19019862E+000	-1.18090947E+002	
-7.16948532E+000	-1.18142223E+002	
-7.14877201E+000	-1.18206815E+002	
-7.12805871E+000	-1.18258165E+002	
-7.10734540E+000	-1.18328407E+002	
-7.08663210E+000	-1.18356245E+002	
-7.06591879E+000	-1.18332821E+002	
-7.04520549E+000	-1.18316308E+002	
-7.02449218E+000	-1.18292924E+002	
-7.00377888E+000	-1.18255102E+002	
-6.98306557E+000	-1.18292712E+002	
-6.96235227E+000	-1.18253374E+002	
-6.94163896E+000	-1.18276220E+002	
-6.92092566E+000	-1.18349031E+002	
-6.90021235E+000	-1.18336911E+002	
-6.87949904E+000	-1.18305821E+002	
-6.85878574E+000	-1.18288650E+002	
-6.83807243E+000	-1.18318267E+002	
-6.81735913E+000	-1.18337866E+002	
-6.79664582E+000	-1.18293252E+002	
-6.77593252E+000	-1.18330971E+002	
-6.75521921E+000	-1.18284562E+002	
-6.73450591E+000	-1.18270777E+002	
-6.71379260E+000	-1.18243278E+002	
-6.69307930E+000	-1.18240915E+002	
-6.67236599E+000	-1.18193829E+002	
-6.65165269E+000	-1.18171368E+002	
-6.63093938E+000	-1.18195879E+002	
-6.61022608E+000	-1.18219110E+002	
-6.58951277E+000	-1.18216234E+002	
-6.56879947E+000	-1.18205984E+002	
-6.54808616E+000	-1.18190138E+002	
-6.52737285E+000	-1.18164616E+002	
-6.50665955E+000	-1.18189459E+002	
-6.48594624E+000	-1.18230573E+002	
-6.46523294E+000	-1.18275742E+002	
-6.44451963E+000	-1.18210664E+002	
-6.42380633E+000	-1.18158429E+002	
-6.40309302E+000	-1.18160748E+002	
-6.38237972E+000	-1.18132684E+002	
-6.36166641E+000	-1.18133143E+002	
-6.34095311E+000	-1.18127608E+002	
-6.32023980E+000	-1.18114525E+002	
-6.29952650E+000	-1.18122737E+002	
-6.27881319E+000	-1.18098442E+002	
-6.25809989E+000	-1.18108828E+002	
-6.23738658E+000	-1.18098212E+002	
-6.21667327E+000	-1.18086393E+002	
-6.19595997E+000	-1.18093473E+002	
-6.17524666E+000	-1.18089477E+002	
-6.15453336E+000	-1.18098994E+002	
-6.13382005E+000	-1.18074250E+002	
-6.11310675E+000	-1.18076799E+002	
-6.09239344E+000	-1.18071757E+002	
-6.07168014E+000	-1.18026281E+002	
-6.05096683E+000	-1.18098512E+002	
-6.03025353E+000	-1.18121036E+002	
-6.00954022E+000	-1.18111399E+002	
-5.98882692E+000	-1.18061030E+002	
-5.96811361E+000	-1.18062128E+002	
-5.94740031E+000	-1.18108588E+002	
-5.92668700E+000	-1.18159943E+002	
-5.90597369E+000	-1.18176238E+002	
-5.88526039E+000	-1.18222902E+002	
-5.86454708E+000	-1.18241999E+002	
-5.84383378E+000	-1.18209072E+002	
-5.82312047E+000	-1.18232713E+002	
-5.80240717E+000	-1.18209571E+002	
-5.78169386E+000	-1.18213564E+002	
-5.76098056E+000	-1.18216531E+002	
-5.74026725E+000	-1.18219043E+002	
-5.71955395E+000	-1.18266060E+002	
-5.69884064E+000	-1.18275097E+002	
-5.67812734E+000	-1.18307068E+002	
-5.65741403E+000	-1.18298850E+002	
-5.63670073E+000	-1.18308790E+002	
-5.61598742E+000	-1.18281298E+002	
-5.59527412E+000	-1.18251868E+002	
-5.57456081E+000	-1.18313595E+002	
-5.55384750E+000	-1.18223973E+002	
-5.53313420E+000	-1.18153127E+002	
-5.51242089E+000	-1.18171119E+002	
-5.49170759E+000	-1.18171126E+002	
-5.47099428E+000	-1.18145456E+002	
-5.45028098E+000	-1.18196532E+002	
-5.42956767E+000	-1.18237384E+002	
-5.40885437E+000	-1.18223335E+002	
-5.38814106E+000	-1.18214289E+002	
-5.36742776E+000	-1.18200918E+002	
-5.34671445E+000	-1.18229824E+002	
-5.32600115E+000	-1.18211173E+002	
-5.30528784E+000	-1.18220106E+002	
-5.28457454E+000	-1.18199545E+002	
-5.26386123E+000	-1.18189035E+002	
-5.24314792E+000	-1.18133277E+002	
-5.22243462E+000	-1.18098358E+002	
-5.20172131E+000	-1.18099876E+002	
-5.18100801E+000	-1.18052471E+002	
-5.16029470E+000	-1.18046938E+002	
-5.13958140E+000	-1.18007563E+002	
-5.11886809E+000	-1.17987712E+002	
-5.09815479E+000	-1.17993642E+002	
-5.07744148E+000	-1.17952389E+002	
-5.05672818E+000	-1.18014540E+002	
-5.03601487E+000	-1.18033116E+002	
-5.01530157E+000	-1.18057901E+002	
-4.99458826E+000	-1.18063213E+002	
-4.97387496E+000	-1.18012774E+002	
-4.95316165E+000	-1.18008356E+002	
-4.93244834E+000	-1.17966991E+002	
-4.91173504E+000	-1.17948857E+002	
-4.89102173E+000	-1.17940624E+002	
-4.87030843E+000	-1.17971138E+002	
-4.84959512E+000	-1.17952481E+002	
-4.82888182E+000	-1.17921755E+002	
-4.80816851E+000	-1.17918960E+002	
-4.78745521E+000	-1.17936991E+002	
-4.76674190E+000	-1.17973017E+002	
-4.74602860E+000	-1.17993345E+002	
-4.72531529E+000	-1.18038456E+002	
-4.70460199E+000	-1.18021658E+002	
-4.68388868E+000	-1.18064887E+002	
-4.66317538E+000	-1.18052616E+002	
-4.64246207E+000	-1.18087581E+002	
-4.62174877E+000	-1.18122760E+002	
-4.60103546E+000	-1.18157531E+002	
-4.58032215E+000	-1.18183308E+002	
-4.55960885E+000	-1.18166171E+002	
-4.53889554E+000	-1.18196076E+002	
-4.51818224E+000	-1.18128467E+002	
-4.49746893E+000	-1.18084221E+002	
-4.47675563E+000	-1.18132650E+002	
-4.45604232E+000	-1.18121466E+002	
-4.43532902E+000	-1.18120890E+002	
-4.41461571E+000	-1.18109532E+002	
-4.39390241E+000	-1.18130639E+002	
-4.37318910E+000	-1.18138043E+002	
-4.35247580E+000	-1.18118804E+002	
-4.33176249E+000	-1.18109627E+002	
-4.31104919E+000	-1.18100769E+002	
-4.29033588E+000	-1.18090488E+002	
-4.26962257E+000	-1.18082235E+002	
-4.24890927E+000	-1.18125696E+002	
-4.22819596E+000	-1.18142843E+002	
-4.20748266E+000	-1.18186514E+002	
-4.18676935E+000	-1.18144023E+002	
-4.16605605E+000	-1.18152215E+002	
-4.14534274E+000	-1.18169942E+002	
-4.12462944E+000	-1.18135542E+002	
-4.10391613E+000	-1.18128134E+002	
-4.08320283E+000	-1.18119395E+002	
-4.06248952E+000	-1.18107337E+002	
-4.04177622E+000	-1.18069929E+002	
-4.02106291E+000	-1.18107770E+002	
-4.00034961E+000	-1.18120328E+002	
-3.97963630E+000	-1.18093835E+002	
-3.95892299E+000	-1.18111812E+002	
-3.93820969E+000	-1.18085728E+002	
-3.91749638E+000	-1.18105511E+002	
-3.89678308E+000	-1.18072766E+002	
-3.87606977E+000	-1.17998032E+002	
-3.85535647E+000	-1.18000044E+002	
-3.83464316E+000	-1.18000369E+002	
-3.81392986E+000	-1.18004363E+002	
-3.79321655E+000	-1.18041002E+002	
-3.77250325E+000	-1.17973918E+002	
-3.75178994E+000	-1.17970635E+002	
-3.73107664E+000	-1.17973532E+002	
-3.71036333E+000	-1.17907903E+002	
-3.68965003E+000	-1.17934977E+002	
-3.66893672E+000	-1.17985130E+002	
-3.64822342E+000	-1.17948295E+002	
-3.62751011E+000	-1.17964262E+002	
-3.60679680E+000	-1.17965932E+002	
-3.58608350E+000	-1.17969154E+002	
-3.56537019E+000	-1.17998556E+002	
-3.54465689E+000	-1.18018785E+002	
-3.52394358E+000	-1.18045865E+002	
-3.50323028E+000	-1.18086682E+002	
-3.48251697E+000	-1.18116768E+002	
-3.46180367E+000	-1.18137855E+002	
-3.44109036E+000	-1.18151610E+002	
-3.42037706E+000	-1.18183320E+002	
-3.39966375E+000	-1.18212102E+002	
-3.37895045E+000	-1.18260941E+002	
-3.35823714E+000	-1.18259115E+002	
-3.33752384E+000	-1.18272234E+002	
-3.31681053E+000	-1.18284204E+002	
-3.29609722E+000	-1.18249368E+002	
-3.27538392E+000	-1.18264097E+002	
-3.25467061E+000	-1.18269829E+002	
-3.23395731E+000	-1.18259905E+002	
-3.21324400E+000	-1.18284929E+002	
-3.19253070E+000	-1.18280819E+002	
-3.17181739E+000	-1.18252166E+002	
-3.15110409E+000	-1.18225735E+002	
-3.13039078E+000	-1.18212835E+002	
-3.10967748E+000	-1.18244161E+002	
-3.08896417E+000	-1.18228604E+002	
-3.06825087E+000	-1.18212528E+002	
-3.04753756E+000	-1.18222388E+002	
-3.02682426E+000	-1.18191567E+002	
-3.00611095E+000	-1.18119793E+002	
-2.98539764E+000	-1.18158443E+002	
-2.96468434E+000	-1.18122086E+002	
-2.94397103E+000	-1.18101105E+002	
-2.92325773E+000	-1.18060979E+002	
-2.90254442E+000	-1.18063111E+002	
-2.88183112E+000	-1.18078400E+002	
-2.86111781E+000	-1.18119974E+002	
-2.84040451E+000	-1.18155396E+002	
-2.81969120E+000	-1.18181363E+002	
-2.79897790E+000	-1.18247361E+002	
-2.77826459E+000	-1.18210268E+002	
-2.75755129E+000	-1.18189737E+002	
-2.73683798E+000	-1.18202182E+002	
-2.71612468E+000	-1.18154093E+002	
-2.69541137E+000	-1.18134270E+002	
-2.67469807E+000	-1.18191062E+002	
-2.65398476E+000	-1.18216143E+002	
-2.63327145E+000	-1.18212963E+002	
-2.61255815E+000	-1.18157985E+002	
-2.59184484E+000	-1.18158553E+002	
-2.57113154E+000	-1.18158010E+002	
-2.55041823E+000	-1.18157062E+002	
-2.52970493E+000	-1.18204357E+002	
-2.50899162E+000	-1.18274833E+002	
-2.48827832E+000	-1.18257013E+002	
-2.46756501E+000	-1.18259486E+002	
-2.44685171E+000	-1.18261548E+002	
-2.42613840E+000	-1.18283593E+002	
-2.40542510E+000	-1.18297180E+002	
-2.38471179E+000	-1.18272347E+002	
-2.36399849E+000	-1.18256194E+002	
-2.34328518E+000	-1.18207254E+002	
-2.32257187E+000	-1.18159104E+002	
-2.30185857E+000	-1.18087006E+002	
-2.28114526E+000	-1.18103027E+002	
-2.26043196E+000	-1.18179768E+002	
-2.23971865E+000	-1.18166630E+002	
-2.21900535E+000	-1.18224676E+002	
-2.19829204E+000	-1.18251757E+002	
-2.17757874E+000	-1.18216688E+002	
-2.15686543E+000	-1.18200560E+002	
-2.13615213E+000	-1.18252321E+002	
-2.11543882E+000	-1.18254654E+002	
-2.09472552E+000	-1.18268045E+002	
-2.07401221E+000	-1.18238756E+002	
-2.05329891E+000	-1.18187891E+002	
-2.03258560E+000	-1.18199871E+002	
-2.01187229E+000	-1.18195453E+002	
-1.99115899E+000	-1.18198030E+002	
-1.97044568E+000	-1.18129526E+002	
-1.94973238E+000	-1.18141504E+002	
-1.92901907E+000	-1.18121144E+002	
-1.90830577E+000	-1.18078522E+002	
-1.88759246E+000	-1.18081508E+002	
-1.86687916E+000	-1.18111452E+002	
-1.84616585E+000	-1.18083004E+002	
-1.82545255E+000	-1.18159209E+002	
-1.80473924E+000	-1.18169614E+002	
-1.78402594E+000	-1.18210899E+002	
-1.76331263E+000	-1.18209941E+002	
-1.74259933E+000	-1.18164373E+002	
-1.72188602E+000	-1.18161942E+002	
-1.70117272E+000	-1.18232537E+002	
-1.68045941E+000	-1.18255555E+002	
-1.65974610E+000	-1.18212145E+002	
-1.63903280E+000	-1.18172833E+002	
-1.61831949E+000	-1.18235610E+002	
-1.59760619E+000	-1.18249799E+002	
-1.57689288E+000	-1.18259397E+002	
-1.55617958E+000	-1.18316672E+002	
-1.53546627E+000	-1.18303098E+002	
-1.51475297E+000	-1.18307029E+002	
-1.49403966E+000	-1.18282454E+002	
-1.47332636E+000	-1.18335252E+002	
-1.45261305E+000	-1.18304062E+002	
-1.43189975E+000	-1.18304195E+002	
-1.41118644E+000	-1.18293230E+002	
-1.39047314E+000	-1.18311292E+002	
-1.36975983E+000	-1.18273998E+002	
-1.34904652E+000	-1.18274638E+002	
-1.32833322E+000	-1.18233866E+002	
-1.30761991E+000	-1.18183093E+002	
-1.28690661E+000	-1.18188941E+002	
-1.26619330E+000	-1.18179999E+002	
-1.24548000E+000	-1.18224203E+002	
-1.22476669E+000	-1.18245112E+002	
-1.20405339E+000	-1.18141140E+002	
-1.18334008E+000	-1.18131061E+002	
-1.16262678E+000	-1.18195632E+002	
-1.14191347E+000	-1.18221048E+002	
-1.12120017E+000	-1.18213400E+002	
-1.10048686E+000	-1.18182957E+002	
-1.07977356E+000	-1.18187171E+002	
-1.05906025E+000	-1.18224156E+002	
-1.03834694E+000	-1.18198791E+002	
-1.01763364E+000	-1.18130960E+002	
-9.96920334E-001	-1.18049871E+002	
-9.76207029E-001	-1.18008696E+002	
-9.55493724E-001	-1.18023038E+002	
-9.34780418E-001	-1.18043703E+002	
-9.14067113E-001	-1.18090993E+002	
-8.93353808E-001	-1.18076366E+002	
-8.72640502E-001	-1.18055339E+002	
-8.51927197E-001	-1.18085459E+002	
-8.31213892E-001	-1.18111302E+002	
-8.10500586E-001	-1.18174536E+002	
-7.89787281E-001	-1.18192068E+002	
-7.69073976E-001	-1.18202687E+002	
-7.48360671E-001	-1.18194407E+002	
-7.27647365E-001	-1.18191086E+002	
-7.06934060E-001	-1.18219459E+002	
-6.86220755E-001	-1.18238759E+002	
-6.65507449E-001	-1.18269550E+002	
-6.44794144E-001	-1.18272496E+002	
-6.24080839E-001	-1.18237917E+002	
-6.03367533E-001	-1.18240828E+002	
-5.82654228E-001	-1.18220216E+002	
-5.61940923E-001	-1.18175504E+002	
-5.41227617E-001	-1.18138845E+002	
-5.20514312E-001	-1.18172472E+002	
-4.99801007E-001	-1.18267522E+002	
-4.79087701E-001	-1.18343746E+002	
-4.58374396E-001	-1.18375721E+002	
-4.37661091E-001	-1.18340065E+002	
-4.16947785E-001	-1.18314929E+002	
-3.96234480E-001	-1.18318006E+002	
-3.75521175E-001	-1.18319734E+002	
-3.54807869E-001	-1.18327336E+002	
-3.34094564E-001	-1.18329726E+002	
-3.13381259E-001	-1.18347068E+002	
-2.92667954E-001	-1.18338248E+002	
-2.71954648E-001	-1.18300571E+002	
-2.51241343E-001	-1.08110856E+002	
-2.30528038E-001	-1.07747854E+002	
-2.09814732E-001	-1.07747334E+002	
-1.89101427E-001	-1.07740509E+002	
-1.68388122E-001	-1.07729798E+002	
-1.47674816E-001	-1.07725529E+002	
-1.26961511E-001	-1.07724519E+002	
-1.06248206E-001	-1.07712743E+002	
-8.55349003E-002	-1.07710926E+002	
-6.48215950E-002	-1.07709191E+002	
-4.41082897E-002	-1.07711327E+002	
-2.33949844E-002	-1.07708052E+002	
-2.68167905E-003	-1.07705330E+002	
1.80316263E-002	-1.07697994E+002	
3.87449316E-002	-1.07692558E+002	
5.94582369E-002	-1.07692533E+002	
8.01715422E-002	-1.07695469E+002	
1.00884848E-001	-1.07694122E+002	
1.21598153E-001	-1.07687463E+002	
1.42311458E-001	-1.07682950E+002	
1.63024763E-001	-1.07681063E+002	
1.83738069E-001	-1.07675080E+002	
2.04451374E-001	-1.07667697E+002	
2.25164679E-001	-1.07668844E+002	
2.45877985E-001	-1.12681023E+002	
2.66591290E-001	-1.17488970E+002	
2.87304595E-001	-1.17487044E+002	
3.08017901E-001	-1.17540484E+002	
3.28731206E-001	-1.17578612E+002	
3.49444511E-001	-1.17594545E+002	
3.70157817E-001	-1.17620762E+002	
3.90871122E-001	-1.17705549E+002	
4.11584427E-001	-1.17672814E+002	
4.32297733E-001	-1.17647109E+002	
4.53011038E-001	-1.17652014E+002	
4.73724343E-001	-1.17679542E+002	
4.94437649E-001	-1.17676723E+002	
5.15150954E-001	-1.17710594E+002	
5.35864259E-001	-1.17720371E+002	
5.56577565E-001	-1.17765565E+002	
5.77290870E-001	-1.17701704E+002	
5.98004175E-001	-1.17678412E+002	
6.18717481E-001	-1.17714623E+002	
6.39430786E-001	-1.17741606E+002	
6.60144091E-001	-1.17723170E+002	
6.80857396E-001	-1.17763100E+002	
7.01570702E-001	-1.17780208E+002	
7.22284007E-001	-1.17775671E+002	
7.42997312E-001	-1.17740333E+002	
7.63710618E-001	-1.17727691E+002	
7.84423923E-001	-1.17697297E+002	
8.05137228E-001	-1.17670704E+002	
8.25850534E-001	-1.17661938E+002	
8.46563839E-001	-1.17629268E+002	
8.67277144E-001	-1.17604982E+002	
8.87990450E-001	-1.17594178E+002	
9.08703755E-001	-1.17683211E+002	
9.29417060E-001	-1.17742870E+002	
9.50130366E-001	-1.17765251E+002	
9.70843671E-001	-1.17714518E+002	
9.91556976E-001	-1.17704013E+002	
1.01227028E+000	-1.17717070E+002	
1.03298359E+000	-1.17717825E+002	
1.05369689E+000	-1.17687845E+002	
1.07441020E+000	-1.17709835E+002	
1.09512350E+000	-1.17713261E+002	
1.11583681E+000	-1.17770506E+002	
1.13655011E+000	-1.17765287E+002	
1.15726342E+000	-1.17757434E+002	
1.17797672E+000	-1.17720186E+002	
1.19869003E+000	-1.17774366E+002	
1.21940333E+000	-1.17760820E+002	
1.24011664E+000	-1.17780324E+002	
1.26082995E+000	-1.17761135E+002	
1.28154325E+000	-1.17770154E+002	
1.30225656E+000	-1.17767692E+002	
1.32296986E+000	-1.17760057E+002	
1.34368317E+000	-1.17779512E+002	
1.36439647E+000	-1.17841887E+002	
1.38510978E+000	-1.17829716E+002	
1.40582308E+000	-1.17771438E+002	
1.42653639E+000	-1.17750615E+002	
1.44724969E+000	-1.17713121E+002	
1.46796300E+000	-1.17727696E+002	
1.48867630E+000	-1.17752300E+002	
1.50938961E+000	-1.17759546E+002	
1.53010291E+000	-1.17770879E+002	
1.55081622E+000	-1.17777512E+002	
1.57152953E+000	-1.17787942E+002	
1.59224283E+000	-1.17759752E+002	
1.61295614E+000	-1.17718373E+002	
1.63366944E+000	-1.17668661E+002	
1.65438275E+000	-1.17652255E+002	
1.67509605E+000	-1.17647866E+002	
1.69580936E+000	-1.17591173E+002	
1.71652266E+000	-1.17608771E+002	
1.73723597E+000	-1.17553157E+002	
1.75794927E+000	-1.17529556E+002	
1.77866258E+000	-1.17555703E+002	
1.79937588E+000	-1.17581026E+002	
1.82008919E+000	-1.17618354E+002	
1.84080249E+000	-1.17627485E+002	
