Time (ns)	Amplitude (dB)	
-1.00072081E+001	-1.20740874E+002	
-9.98649484E+000	-1.20409470E+002	
-9.96578154E+000	-1.20047632E+002	
-9.94506823E+000	-1.19782525E+002	
-9.92435493E+000	-1.19551491E+002	
-9.90364162E+000	-1.19303927E+002	
-9.88292832E+000	-1.19093203E+002	
-9.86221501E+000	-1.18882606E+002	
-9.84150171E+000	-1.18681747E+002	
-9.82078840E+000	-1.18505052E+002	
-9.80007509E+000	-1.18307360E+002	
-9.77936179E+000	-1.18105433E+002	
-9.75864848E+000	-1.18053352E+002	
-9.73793518E+000	-1.18068602E+002	
-9.71722187E+000	-1.18061171E+002	
-9.69650857E+000	-1.18063974E+002	
-9.67579526E+000	-1.18124123E+002	
-9.65508196E+000	-1.18107052E+002	
-9.63436865E+000	-1.18053748E+002	
-9.61365535E+000	-1.18058482E+002	
-9.59294204E+000	-1.18091858E+002	
-9.57222874E+000	-1.18112304E+002	
-9.55151543E+000	-1.18124649E+002	
-9.53080213E+000	-1.18110348E+002	
-9.51008882E+000	-1.18137099E+002	
-9.48937552E+000	-1.18162162E+002	
-9.46866221E+000	-1.18168590E+002	
-9.44794890E+000	-1.18144459E+002	
-9.42723560E+000	-1.18089882E+002	
-9.40652229E+000	-1.18088532E+002	
-9.38580899E+000	-1.18068226E+002	
-9.36509568E+000	-1.18061801E+002	
-9.34438238E+000	-1.18029876E+002	
-9.32366907E+000	-1.18007110E+002	
-9.30295577E+000	-1.18006347E+002	
-9.28224246E+000	-1.18030918E+002	
-9.26152916E+000	-1.17986049E+002	
-9.24081585E+000	-1.17931754E+002	
-9.22010255E+000	-1.17918312E+002	
-9.19938924E+000	-1.17957959E+002	
-9.17867594E+000	-1.17943194E+002	
-9.15796263E+000	-1.17945734E+002	
-9.13724932E+000	-1.18007295E+002	
-9.11653602E+000	-1.18013606E+002	
-9.09582271E+000	-1.17963611E+002	
-9.07510941E+000	-1.17968587E+002	
-9.05439610E+000	-1.17974607E+002	
-9.03368280E+000	-1.17851563E+002	
-9.01296949E+000	-1.17841068E+002	
-8.99225619E+000	-1.17851128E+002	
-8.97154288E+000	-1.17898619E+002	
-8.95082958E+000	-1.17913551E+002	
-8.93011627E+000	-1.17944679E+002	
-8.90940297E+000	-1.17967817E+002	
-8.88868966E+000	-1.17985061E+002	
-8.86797636E+000	-1.17975171E+002	
-8.84726305E+000	-1.17993577E+002	
-8.82654974E+000	-1.17973364E+002	
-8.80583644E+000	-1.17985643E+002	
-8.78512313E+000	-1.17987729E+002	
-8.76440983E+000	-1.18003522E+002	
-8.74369652E+000	-1.18066369E+002	
-8.72298322E+000	-1.18085486E+002	
-8.70226991E+000	-1.18013990E+002	
-8.68155661E+000	-1.17980950E+002	
-8.66084330E+000	-1.18016129E+002	
-8.64013000E+000	-1.17982924E+002	
-8.61941669E+000	-1.17939194E+002	
-8.59870339E+000	-1.17981058E+002	
-8.57799008E+000	-1.17982727E+002	
-8.55727678E+000	-1.17938679E+002	
-8.53656347E+000	-1.18055605E+002	
-8.51585017E+000	-1.18080198E+002	
-8.49513686E+000	-1.18077428E+002	
-8.47442355E+000	-1.18066815E+002	
-8.45371025E+000	-1.18095351E+002	
-8.43299694E+000	-1.18138730E+002	
-8.41228364E+000	-1.18108554E+002	
-8.39157033E+000	-1.18087063E+002	
-8.37085703E+000	-1.18134105E+002	
-8.35014372E+000	-1.18145334E+002	
-8.32943042E+000	-1.18164671E+002	
-8.30871711E+000	-1.18120721E+002	
-8.28800381E+000	-1.18152744E+002	
-8.26729050E+000	-1.18131722E+002	
-8.24657720E+000	-1.18118393E+002	
-8.22586389E+000	-1.18096666E+002	
-8.20515059E+000	-1.18149255E+002	
-8.18443728E+000	-1.18147285E+002	
-8.16372397E+000	-1.18132821E+002	
-8.14301067E+000	-1.18089793E+002	
-8.12229736E+000	-1.18105011E+002	
-8.10158406E+000	-1.18095373E+002	
-8.08087075E+000	-1.18091555E+002	
-8.06015745E+000	-1.18075780E+002	
-8.03944414E+000	-1.18022700E+002	
-8.01873084E+000	-1.18035927E+002	
-7.99801753E+000	-1.18015924E+002	
-7.97730423E+000	-1.18002965E+002	
-7.95659092E+000	-1.17969982E+002	
-7.93587762E+000	-1.17976214E+002	
-7.91516431E+000	-1.18014101E+002	
-7.89445101E+000	-1.18011853E+002	
-7.87373770E+000	-1.17989683E+002	
-7.85302439E+000	-1.17983142E+002	
-7.83231109E+000	-1.17966064E+002	
-7.81159778E+000	-1.18020470E+002	
-7.79088448E+000	-1.18046382E+002	
-7.77017117E+000	-1.18072425E+002	
-7.74945787E+000	-1.18095026E+002	
-7.72874456E+000	-1.18105769E+002	
-7.70803126E+000	-1.18066156E+002	
-7.68731795E+000	-1.18096505E+002	
-7.66660465E+000	-1.18093668E+002	
-7.64589134E+000	-1.18091246E+002	
-7.62517804E+000	-1.18078525E+002	
-7.60446473E+000	-1.18024708E+002	
-7.58375143E+000	-1.18046199E+002	
-7.56303812E+000	-1.18076028E+002	
-7.54232482E+000	-1.18145318E+002	
-7.52161151E+000	-1.18132719E+002	
-7.50089820E+000	-1.18155936E+002	
-7.48018490E+000	-1.18141037E+002	
-7.45947159E+000	-1.18188561E+002	
-7.43875829E+000	-1.18126333E+002	
-7.41804498E+000	-1.18042521E+002	
-7.39733168E+000	-1.18091605E+002	
-7.37661837E+000	-1.18104627E+002	
-7.35590507E+000	-1.18113257E+002	
-7.33519176E+000	-1.18136080E+002	
-7.31447846E+000	-1.18149280E+002	
-7.29376515E+000	-1.18121308E+002	
-7.27305185E+000	-1.18088018E+002	
-7.25233854E+000	-1.18113296E+002	
-7.23162524E+000	-1.18130005E+002	
-7.21091193E+000	-1.18121662E+002	
-7.19019862E+000	-1.18119939E+002	
-7.16948532E+000	-1.18166856E+002	
-7.14877201E+000	-1.18240395E+002	
-7.12805871E+000	-1.18297619E+002	
-7.10734540E+000	-1.18368364E+002	
-7.08663210E+000	-1.18401009E+002	
-7.06591879E+000	-1.18379339E+002	
-7.04520549E+000	-1.18361992E+002	
-7.02449218E+000	-1.18341093E+002	
-7.00377888E+000	-1.18306041E+002	
-6.98306557E+000	-1.18333787E+002	
-6.96235227E+000	-1.18289747E+002	
-6.94163896E+000	-1.18314161E+002	
-6.92092566E+000	-1.18384397E+002	
-6.90021235E+000	-1.18373858E+002	
-6.87949904E+000	-1.18339505E+002	
-6.85878574E+000	-1.18324049E+002	
-6.83807243E+000	-1.18349193E+002	
-6.81735913E+000	-1.18364666E+002	
-6.79664582E+000	-1.18323564E+002	
-6.77593252E+000	-1.18366678E+002	
-6.75521921E+000	-1.18320071E+002	
-6.73450591E+000	-1.18308840E+002	
-6.71379260E+000	-1.18279123E+002	
-6.69307930E+000	-1.18278212E+002	
-6.67236599E+000	-1.18231045E+002	
-6.65165269E+000	-1.18210557E+002	
-6.63093938E+000	-1.18231401E+002	
-6.61022608E+000	-1.18249626E+002	
-6.58951277E+000	-1.18238065E+002	
-6.56879947E+000	-1.18232384E+002	
-6.54808616E+000	-1.18226817E+002	
-6.52737285E+000	-1.18207833E+002	
-6.50665955E+000	-1.18232646E+002	
-6.48594624E+000	-1.18279147E+002	
-6.46523294E+000	-1.18322069E+002	
-6.44451963E+000	-1.18256817E+002	
-6.42380633E+000	-1.18210823E+002	
-6.40309302E+000	-1.18207217E+002	
-6.38237972E+000	-1.18176810E+002	
-6.36166641E+000	-1.18171901E+002	
-6.34095311E+000	-1.18171631E+002	
-6.32023980E+000	-1.18162702E+002	
-6.29952650E+000	-1.18170533E+002	
-6.27881319E+000	-1.18139276E+002	
-6.25809989E+000	-1.18151376E+002	
-6.23738658E+000	-1.18141384E+002	
-6.21667327E+000	-1.18132200E+002	
-6.19595997E+000	-1.18145683E+002	
-6.17524666E+000	-1.18131219E+002	
-6.15453336E+000	-1.18130793E+002	
-6.13382005E+000	-1.18106169E+002	
-6.11310675E+000	-1.18103562E+002	
-6.09239344E+000	-1.18100048E+002	
-6.07168014E+000	-1.18048331E+002	
-6.05096683E+000	-1.18110818E+002	
-6.03025353E+000	-1.18128034E+002	
-6.00954022E+000	-1.18119461E+002	
-5.98882692E+000	-1.18065430E+002	
-5.96811361E+000	-1.18070191E+002	
-5.94740031E+000	-1.18116766E+002	
-5.92668700E+000	-1.18157240E+002	
-5.90597369E+000	-1.18172040E+002	
-5.88526039E+000	-1.18224315E+002	
-5.86454708E+000	-1.18251606E+002	
-5.84383378E+000	-1.18216413E+002	
-5.82312047E+000	-1.18243209E+002	
-5.80240717E+000	-1.18219273E+002	
-5.78169386E+000	-1.18234223E+002	
-5.76098056E+000	-1.18231714E+002	
-5.74026725E+000	-1.18231525E+002	
-5.71955395E+000	-1.18271051E+002	
-5.69884064E+000	-1.18274555E+002	
-5.67812734E+000	-1.18316330E+002	
-5.65741403E+000	-1.18312219E+002	
-5.63670073E+000	-1.18320572E+002	
-5.61598742E+000	-1.18291628E+002	
-5.59527412E+000	-1.18251257E+002	
-5.57456081E+000	-1.18313996E+002	
-5.55384750E+000	-1.18229974E+002	
-5.53313420E+000	-1.18153665E+002	
-5.51242089E+000	-1.18157933E+002	
-5.49170759E+000	-1.18152691E+002	
-5.47099428E+000	-1.18131056E+002	
-5.45028098E+000	-1.18183095E+002	
-5.42956767E+000	-1.18225919E+002	
-5.40885437E+000	-1.18212385E+002	
-5.38814106E+000	-1.18192310E+002	
-5.36742776E+000	-1.18167274E+002	
-5.34671445E+000	-1.18196771E+002	
-5.32600115E+000	-1.18187413E+002	
-5.30528784E+000	-1.18198999E+002	
-5.28457454E+000	-1.18174367E+002	
-5.26386123E+000	-1.18170123E+002	
-5.24314792E+000	-1.18119179E+002	
-5.22243462E+000	-1.18095042E+002	
-5.20172131E+000	-1.18100752E+002	
-5.18100801E+000	-1.18046425E+002	
-5.16029470E+000	-1.18041995E+002	
-5.13958140E+000	-1.18006255E+002	
-5.11886809E+000	-1.17990121E+002	
-5.09815479E+000	-1.17999252E+002	
-5.07744148E+000	-1.17968554E+002	
-5.05672818E+000	-1.18028134E+002	
-5.03601487E+000	-1.18046478E+002	
-5.01530157E+000	-1.18079890E+002	
-4.99458826E+000	-1.18098778E+002	
-4.97387496E+000	-1.18053910E+002	
-4.95316165E+000	-1.18050210E+002	
-4.93244834E+000	-1.18010725E+002	
-4.91173504E+000	-1.17998209E+002	
-4.89102173E+000	-1.18003496E+002	
-4.87030843E+000	-1.18044823E+002	
-4.84959512E+000	-1.18029846E+002	
-4.82888182E+000	-1.17993854E+002	
-4.80816851E+000	-1.17986206E+002	
-4.78745521E+000	-1.17999521E+002	
-4.76674190E+000	-1.18034242E+002	
-4.74602860E+000	-1.18053776E+002	
-4.72531529E+000	-1.18096656E+002	
-4.70460199E+000	-1.18074496E+002	
-4.68388868E+000	-1.18124543E+002	
-4.66317538E+000	-1.18114597E+002	
-4.64246207E+000	-1.18141601E+002	
-4.62174877E+000	-1.18182624E+002	
-4.60103546E+000	-1.18229123E+002	
-4.58032215E+000	-1.18250902E+002	
-4.55960885E+000	-1.18223128E+002	
-4.53889554E+000	-1.18252605E+002	
-4.51818224E+000	-1.18180304E+002	
-4.49746893E+000	-1.18128074E+002	
-4.47675563E+000	-1.18164554E+002	
-4.45604232E+000	-1.18144006E+002	
-4.43532902E+000	-1.18138260E+002	
-4.41461571E+000	-1.18118255E+002	
-4.39390241E+000	-1.18136300E+002	
-4.37318910E+000	-1.18141539E+002	
-4.35247580E+000	-1.18115869E+002	
-4.33176249E+000	-1.18106733E+002	
-4.31104919E+000	-1.18098363E+002	
-4.29033588E+000	-1.18090933E+002	
-4.26962257E+000	-1.18084221E+002	
-4.24890927E+000	-1.18126019E+002	
-4.22819596E+000	-1.18140661E+002	
-4.20748266E+000	-1.18186277E+002	
-4.18676935E+000	-1.18141439E+002	
-4.16605605E+000	-1.18148583E+002	
-4.14534274E+000	-1.18168790E+002	
-4.12462944E+000	-1.18131120E+002	
-4.10391613E+000	-1.18120650E+002	
-4.08320283E+000	-1.18108594E+002	
-4.06248952E+000	-1.18100827E+002	
-4.04177622E+000	-1.18072500E+002	
-4.02106291E+000	-1.18110029E+002	
-4.00034961E+000	-1.18117899E+002	
-3.97963630E+000	-1.18093244E+002	
-3.95892299E+000	-1.18110578E+002	
-3.93820969E+000	-1.18096750E+002	
-3.91749638E+000	-1.18124722E+002	
-3.89678308E+000	-1.18090156E+002	
-3.87606977E+000	-1.18014518E+002	
-3.85535647E+000	-1.18017165E+002	
-3.83464316E+000	-1.18014136E+002	
-3.81392986E+000	-1.18012555E+002	
-3.79321655E+000	-1.18043409E+002	
-3.77250325E+000	-1.17972331E+002	
-3.75178994E+000	-1.17970419E+002	
-3.73107664E+000	-1.17980809E+002	
-3.71036333E+000	-1.17916661E+002	
-3.68965003E+000	-1.17940490E+002	
-3.66893672E+000	-1.17987066E+002	
-3.64822342E+000	-1.17946859E+002	
-3.62751011E+000	-1.17962055E+002	
-3.60679680E+000	-1.17958031E+002	
-3.58608350E+000	-1.17963549E+002	
-3.56537019E+000	-1.17988888E+002	
-3.54465689E+000	-1.18000498E+002	
-3.52394358E+000	-1.18033334E+002	
-3.50323028E+000	-1.18073553E+002	
-3.48251697E+000	-1.18101107E+002	
-3.46180367E+000	-1.18126271E+002	
-3.44109036E+000	-1.18139988E+002	
-3.42037706E+000	-1.18173009E+002	
-3.39966375E+000	-1.18211169E+002	
-3.37895045E+000	-1.18255546E+002	
-3.35823714E+000	-1.18248493E+002	
-3.33752384E+000	-1.18253296E+002	
-3.31681053E+000	-1.18265432E+002	
-3.29609722E+000	-1.18238554E+002	
-3.27538392E+000	-1.18258553E+002	
-3.25467061E+000	-1.18264126E+002	
-3.23395731E+000	-1.18244225E+002	
-3.21324400E+000	-1.18267620E+002	
-3.19253070E+000	-1.18262495E+002	
-3.17181739E+000	-1.18237919E+002	
-3.15110409E+000	-1.18223544E+002	
-3.13039078E+000	-1.18215426E+002	
-3.10967748E+000	-1.18254257E+002	
-3.08896417E+000	-1.18239398E+002	
-3.06825087E+000	-1.18229787E+002	
-3.04753756E+000	-1.18242052E+002	
-3.02682426E+000	-1.18205810E+002	
-3.00611095E+000	-1.18133877E+002	
-2.98539764E+000	-1.18177612E+002	
-2.96468434E+000	-1.18139596E+002	
-2.94397103E+000	-1.18109766E+002	
-2.92325773E+000	-1.18061084E+002	
-2.90254442E+000	-1.18054530E+002	
-2.88183112E+000	-1.18068394E+002	
-2.86111781E+000	-1.18116173E+002	
-2.84040451E+000	-1.18161620E+002	
-2.81969120E+000	-1.18192622E+002	
-2.79897790E+000	-1.18252571E+002	
-2.77826459E+000	-1.18213263E+002	
-2.75755129E+000	-1.18190071E+002	
-2.73683798E+000	-1.18205784E+002	
-2.71612468E+000	-1.18161848E+002	
-2.69541137E+000	-1.18150569E+002	
-2.67469807E+000	-1.18207177E+002	
-2.65398476E+000	-1.18222412E+002	
-2.63327145E+000	-1.18217700E+002	
-2.61255815E+000	-1.18163223E+002	
-2.59184484E+000	-1.18166424E+002	
-2.57113154E+000	-1.18162134E+002	
-2.55041823E+000	-1.18166613E+002	
-2.52970493E+000	-1.18220475E+002	
-2.50899162E+000	-1.18294070E+002	
-2.48827832E+000	-1.18275045E+002	
-2.46756501E+000	-1.18277571E+002	
-2.44685171E+000	-1.18278797E+002	
-2.42613840E+000	-1.18308372E+002	
-2.40542510E+000	-1.18322367E+002	
-2.38471179E+000	-1.18298749E+002	
-2.36399849E+000	-1.18276996E+002	
-2.34328518E+000	-1.18222926E+002	
-2.32257187E+000	-1.18174836E+002	
-2.30185857E+000	-1.18104543E+002	
-2.28114526E+000	-1.18122215E+002	
-2.26043196E+000	-1.18199389E+002	
-2.23971865E+000	-1.18185066E+002	
-2.21900535E+000	-1.18236421E+002	
-2.19829204E+000	-1.18259781E+002	
-2.17757874E+000	-1.18219989E+002	
-2.15686543E+000	-1.18207761E+002	
-2.13615213E+000	-1.18256908E+002	
-2.11543882E+000	-1.18261487E+002	
-2.09472552E+000	-1.18270888E+002	
-2.07401221E+000	-1.18239945E+002	
-2.05329891E+000	-1.18183554E+002	
-2.03258560E+000	-1.18190085E+002	
-2.01187229E+000	-1.18179891E+002	
-1.99115899E+000	-1.18182571E+002	
-1.97044568E+000	-1.18119333E+002	
-1.94973238E+000	-1.18137619E+002	
-1.92901907E+000	-1.18121362E+002	
-1.90830577E+000	-1.18077491E+002	
-1.88759246E+000	-1.18083155E+002	
-1.86687916E+000	-1.18121633E+002	
-1.84616585E+000	-1.18099779E+002	
-1.82545255E+000	-1.18173979E+002	
-1.80473924E+000	-1.18185128E+002	
-1.78402594E+000	-1.18219987E+002	
-1.76331263E+000	-1.18221757E+002	
-1.74259933E+000	-1.18176799E+002	
-1.72188602E+000	-1.18177865E+002	
-1.70117272E+000	-1.18243384E+002	
-1.68045941E+000	-1.18268719E+002	
-1.65974610E+000	-1.18226937E+002	
-1.63903280E+000	-1.18188374E+002	
-1.61831949E+000	-1.18247407E+002	
-1.59760619E+000	-1.18262757E+002	
-1.57689288E+000	-1.18278424E+002	
-1.55617958E+000	-1.18338971E+002	
-1.53546627E+000	-1.18323079E+002	
-1.51475297E+000	-1.18325369E+002	
-1.49403966E+000	-1.18305532E+002	
-1.47332636E+000	-1.18353465E+002	
-1.45261305E+000	-1.18320465E+002	
-1.43189975E+000	-1.18320814E+002	
-1.41118644E+000	-1.18316660E+002	
-1.39047314E+000	-1.18336767E+002	
-1.36975983E+000	-1.18296360E+002	
-1.34904652E+000	-1.18291764E+002	
-1.32833322E+000	-1.18249383E+002	
-1.30761991E+000	-1.18198195E+002	
-1.28690661E+000	-1.18206647E+002	
-1.26619330E+000	-1.18196034E+002	
-1.24548000E+000	-1.18241970E+002	
-1.22476669E+000	-1.18258872E+002	
-1.20405339E+000	-1.18155919E+002	
-1.18334008E+000	-1.18145643E+002	
-1.16262678E+000	-1.18217480E+002	
-1.14191347E+000	-1.18249117E+002	
-1.12120017E+000	-1.18240372E+002	
-1.10048686E+000	-1.18214479E+002	
-1.07977356E+000	-1.18217666E+002	
-1.05906025E+000	-1.18256982E+002	
-1.03834694E+000	-1.18238812E+002	
-1.01763364E+000	-1.18177962E+002	
-9.96920334E-001	-1.18089362E+002	
-9.76207029E-001	-1.18045449E+002	
-9.55493724E-001	-1.18060248E+002	
-9.34780418E-001	-1.18075448E+002	
-9.14067113E-001	-1.18114606E+002	
-8.93353808E-001	-1.18099811E+002	
-8.72640502E-001	-1.18077036E+002	
-8.51927197E-001	-1.18107613E+002	
-8.31213892E-001	-1.18136566E+002	
-8.10500586E-001	-1.18195419E+002	
-7.89787281E-001	-1.18211469E+002	
-7.69073976E-001	-1.18222599E+002	
-7.48360671E-001	-1.18207612E+002	
-7.27647365E-001	-1.18201172E+002	
-7.06934060E-001	-1.18232626E+002	
-6.86220755E-001	-1.18260525E+002	
-6.65507449E-001	-1.18279675E+002	
-6.44794144E-001	-1.18274900E+002	
-6.24080839E-001	-1.18244026E+002	
-6.03367533E-001	-1.18243569E+002	
-5.82654228E-001	-1.18218585E+002	
-5.61940923E-001	-1.18165454E+002	
-5.41227617E-001	-1.18121281E+002	
-5.20514312E-001	-1.18153804E+002	
-4.99801007E-001	-1.18254497E+002	
-4.79087701E-001	-1.18336505E+002	
-4.58374396E-001	-1.18366910E+002	
-4.37661091E-001	-1.18328388E+002	
-4.16947785E-001	-1.18304033E+002	
-3.96234480E-001	-1.18312020E+002	
-3.75521175E-001	-1.18318152E+002	
-3.54807869E-001	-1.18328208E+002	
-3.34094564E-001	-1.18335696E+002	
-3.13381259E-001	-1.18357097E+002	
-2.92667954E-001	-1.18355524E+002	
-2.71954648E-001	-1.18319095E+002	
-2.51241343E-001	-1.08117318E+002	
-2.30528038E-001	-1.07757801E+002	
-2.09814732E-001	-1.07756900E+002	
-1.89101427E-001	-1.07748818E+002	
-1.68388122E-001	-1.07738667E+002	
-1.47674816E-001	-1.07734725E+002	
-1.26961511E-001	-1.07733694E+002	
-1.06248206E-001	-1.07722377E+002	
-8.55349003E-002	-1.07720758E+002	
-6.48215950E-002	-1.07719380E+002	
-4.41082897E-002	-1.07722092E+002	
-2.33949844E-002	-1.07719562E+002	
-2.68167905E-003	-1.07716726E+002	
1.80316263E-002	-1.07708655E+002	
3.87449316E-002	-1.07703287E+002	
5.94582369E-002	-1.07703539E+002	
8.01715422E-002	-1.07706228E+002	
1.00884848E-001	-1.07704618E+002	
1.21598153E-001	-1.07697310E+002	
1.42311458E-001	-1.07693002E+002	
1.63024763E-001	-1.07690762E+002	
1.83738069E-001	-1.07684626E+002	
2.04451374E-001	-1.07676675E+002	
2.25164679E-001	-1.07677417E+002	
2.45877985E-001	-1.12699210E+002	
2.66591290E-001	-1.17500492E+002	
2.87304595E-001	-1.17503209E+002	
3.08017901E-001	-1.17569632E+002	
3.28731206E-001	-1.17608828E+002	
3.49444511E-001	-1.17616859E+002	
3.70157817E-001	-1.17642650E+002	
3.90871122E-001	-1.17727409E+002	
4.11584427E-001	-1.17696663E+002	
4.32297733E-001	-1.17673488E+002	
4.53011038E-001	-1.17678578E+002	
4.73724343E-001	-1.17701855E+002	
4.94437649E-001	-1.17697798E+002	
5.15150954E-001	-1.17739380E+002	
5.35864259E-001	-1.17751359E+002	
5.56577565E-001	-1.17794211E+002	
5.77290870E-001	-1.17731635E+002	
5.98004175E-001	-1.17703133E+002	
6.18717481E-001	-1.17743096E+002	
6.39430786E-001	-1.17765875E+002	
6.60144091E-001	-1.17746384E+002	
6.80857396E-001	-1.17789761E+002	
7.01570702E-001	-1.17813721E+002	
7.22284007E-001	-1.17818667E+002	
7.42997312E-001	-1.17785214E+002	
7.63710618E-001	-1.17777728E+002	
7.84423923E-001	-1.17744099E+002	
8.05137228E-001	-1.17707206E+002	
8.25850534E-001	-1.17692944E+002	
8.46563839E-001	-1.17659350E+002	
8.67277144E-001	-1.17631814E+002	
8.87990450E-001	-1.17620523E+002	
9.08703755E-001	-1.17705589E+002	
9.29417060E-001	-1.17765681E+002	
9.50130366E-001	-1.17783182E+002	
9.70843671E-001	-1.17729926E+002	
9.91556976E-001	-1.17719677E+002	
1.01227028E+000	-1.17731641E+002	
1.03298359E+000	-1.17737321E+002	
1.05369689E+000	-1.17707833E+002	
1.07441020E+000	-1.17723894E+002	
1.09512350E+000	-1.17727503E+002	
1.11583681E+000	-1.17785439E+002	
1.13655011E+000	-1.17783466E+002	
1.15726342E+000	-1.17777087E+002	
1.17797672E+000	-1.17742187E+002	
1.19869003E+000	-1.17793867E+002	
1.21940333E+000	-1.17775986E+002	
1.24011664E+000	-1.17792846E+002	
1.26082995E+000	-1.17770284E+002	
1.28154325E+000	-1.17780927E+002	
1.30225656E+000	-1.17788823E+002	
1.32296986E+000	-1.17783183E+002	
1.34368317E+000	-1.17806249E+002	
1.36439647E+000	-1.17875665E+002	
1.38510978E+000	-1.17859054E+002	
1.40582308E+000	-1.17805576E+002	
1.42653639E+000	-1.17789808E+002	
1.44724969E+000	-1.17760369E+002	
1.46796300E+000	-1.17769094E+002	
1.48867630E+000	-1.17792198E+002	
1.50938961E+000	-1.17800273E+002	
1.53010291E+000	-1.17798723E+002	
1.55081622E+000	-1.17809434E+002	
1.57152953E+000	-1.17826789E+002	
1.59224283E+000	-1.17801036E+002	
1.61295614E+000	-1.17759291E+002	
1.63366944E+000	-1.17709781E+002	
1.65438275E+000	-1.17690934E+002	
1.67509605E+000	-1.17683686E+002	
1.69580936E+000	-1.17623665E+002	
1.71652266E+000	-1.17634933E+002	
1.73723597E+000	-1.17579250E+002	
1.75794927E+000	-1.17553064E+002	
1.77866258E+000	-1.17580420E+002	
1.79937588E+000	-1.17606819E+002	
1.82008919E+000	-1.17646818E+002	
1.84080249E+000	-1.17658272E+002	
