Acquired on 4/26/2021 at 16:23:33
Calibrated on 4/26/2021 at 14:40:00
Device Descriptor:  [none]
Scan Range (nm):  1539.624  --  1560.517
Measurement Type:  Reflection
Group Index:  1.500
Gain:  24 dB
Domain:  Time
Spatial Resolution (mm):  50.000000
Frequency domain window was applied to measurement data.
Number of Data Points (in this file):  16384
NOTE: Data stored in this file is decimated by a factor of 64.

Time (ns)	Amplitude (dB)	
-1.00072081E+001	-1.20300783E+002	
-9.98649484E+000	-1.19973334E+002	
-9.96578154E+000	-1.19641788E+002	
-9.94506823E+000	-1.19376784E+002	
-9.92435493E+000	-1.19144388E+002	
-9.90364162E+000	-1.18908816E+002	
-9.88292832E+000	-1.18689938E+002	
-9.86221501E+000	-1.18471921E+002	
-9.84150171E+000	-1.18281743E+002	
-9.82078840E+000	-1.18103691E+002	
-9.80007509E+000	-1.17898944E+002	
-9.77936179E+000	-1.17710642E+002	
-9.75864848E+000	-1.17658892E+002	
-9.73793518E+000	-1.17691768E+002	
-9.71722187E+000	-1.17689706E+002	
-9.69650857E+000	-1.17690265E+002	
-9.67579526E+000	-1.17749556E+002	
-9.65508196E+000	-1.17732208E+002	
-9.63436865E+000	-1.17677514E+002	
-9.61365535E+000	-1.17670926E+002	
-9.59294204E+000	-1.17683880E+002	
-9.57222874E+000	-1.17720770E+002	
-9.55151543E+000	-1.17748986E+002	
-9.53080213E+000	-1.17730350E+002	
-9.51008882E+000	-1.17761932E+002	
-9.48937552E+000	-1.17782262E+002	
-9.46866221E+000	-1.17769383E+002	
-9.44794890E+000	-1.17745102E+002	
-9.42723560E+000	-1.17694685E+002	
-9.40652229E+000	-1.17679228E+002	
-9.38580899E+000	-1.17649111E+002	
-9.36509568E+000	-1.17642209E+002	
-9.34438238E+000	-1.17593460E+002	
-9.32366907E+000	-1.17568243E+002	
-9.30295577E+000	-1.17574848E+002	
-9.28224246E+000	-1.17580865E+002	
-9.26152916E+000	-1.17526680E+002	
-9.24081585E+000	-1.17454947E+002	
-9.22010255E+000	-1.17431943E+002	
-9.19938924E+000	-1.17467520E+002	
-9.17867594E+000	-1.17448086E+002	
-9.15796263E+000	-1.17437548E+002	
-9.13724932E+000	-1.17498555E+002	
-9.11653602E+000	-1.17507006E+002	
-9.09582271E+000	-1.17491239E+002	
-9.07510941E+000	-1.17489120E+002	
-9.05439610E+000	-1.17477335E+002	
-9.03368280E+000	-1.17360941E+002	
-9.01296949E+000	-1.17348207E+002	
-8.99225619E+000	-1.17351055E+002	
-8.97154288E+000	-1.17395823E+002	
-8.95082958E+000	-1.17411650E+002	
-8.93011627E+000	-1.17435474E+002	
-8.90940297E+000	-1.17464566E+002	
-8.88868966E+000	-1.17489275E+002	
-8.86797636E+000	-1.17480543E+002	
-8.84726305E+000	-1.17493261E+002	
-8.82654974E+000	-1.17474890E+002	
-8.80583644E+000	-1.17492743E+002	
-8.78512313E+000	-1.17489775E+002	
-8.76440983E+000	-1.17496462E+002	
-8.74369652E+000	-1.17567915E+002	
-8.72298322E+000	-1.17594273E+002	
-8.70226991E+000	-1.17529147E+002	
-8.68155661E+000	-1.17507547E+002	
-8.66084330E+000	-1.17538975E+002	
-8.64013000E+000	-1.17491883E+002	
-8.61941669E+000	-1.17445717E+002	
-8.59870339E+000	-1.17467088E+002	
-8.57799008E+000	-1.17466454E+002	
-8.55727678E+000	-1.17434633E+002	
-8.53656347E+000	-1.17545210E+002	
-8.51585017E+000	-1.17551961E+002	
-8.49513686E+000	-1.17544110E+002	
-8.47442355E+000	-1.17529903E+002	
-8.45371025E+000	-1.17546185E+002	
-8.43299694E+000	-1.17584634E+002	
-8.41228364E+000	-1.17556906E+002	
-8.39157033E+000	-1.17543687E+002	
-8.37085703E+000	-1.17587120E+002	
-8.35014372E+000	-1.17602246E+002	
-8.32943042E+000	-1.17626395E+002	
-8.30871711E+000	-1.17571548E+002	
-8.28800381E+000	-1.17602287E+002	
-8.26729050E+000	-1.17602409E+002	
-8.24657720E+000	-1.17592893E+002	
-8.22586389E+000	-1.17567858E+002	
-8.20515059E+000	-1.17615351E+002	
-8.18443728E+000	-1.17612511E+002	
-8.16372397E+000	-1.17596854E+002	
-8.14301067E+000	-1.17568497E+002	
-8.12229736E+000	-1.17582620E+002	
-8.10158406E+000	-1.17589124E+002	
-8.08087075E+000	-1.17585898E+002	
-8.06015745E+000	-1.17567868E+002	
-8.03944414E+000	-1.17517865E+002	
-8.01873084E+000	-1.17539763E+002	
-7.99801753E+000	-1.17544789E+002	
-7.97730423E+000	-1.17542841E+002	
-7.95659092E+000	-1.17517724E+002	
-7.93587762E+000	-1.17530758E+002	
-7.91516431E+000	-1.17555840E+002	
-7.89445101E+000	-1.17548274E+002	
-7.87373770E+000	-1.17524181E+002	
-7.85302439E+000	-1.17516709E+002	
-7.83231109E+000	-1.17492646E+002	
-7.81159778E+000	-1.17535039E+002	
-7.79088448E+000	-1.17557497E+002	
-7.77017117E+000	-1.17575379E+002	
-7.74945787E+000	-1.17589851E+002	
-7.72874456E+000	-1.17608663E+002	
-7.70803126E+000	-1.17574926E+002	
-7.68731795E+000	-1.17607663E+002	
-7.66660465E+000	-1.17598939E+002	
-7.64589134E+000	-1.17598590E+002	
-7.62517804E+000	-1.17603709E+002	
-7.60446473E+000	-1.17528173E+002	
-7.58375143E+000	-1.17541244E+002	
-7.56303812E+000	-1.17577748E+002	
-7.54232482E+000	-1.17644699E+002	
-7.52161151E+000	-1.17630290E+002	
-7.50089820E+000	-1.17638981E+002	
-7.48018490E+000	-1.17618500E+002	
-7.45947159E+000	-1.17664697E+002	
-7.43875829E+000	-1.17592934E+002	
-7.41804498E+000	-1.17520791E+002	
-7.39733168E+000	-1.17560591E+002	
-7.37661837E+000	-1.17556044E+002	
-7.35590507E+000	-1.17564660E+002	
-7.33519176E+000	-1.17592647E+002	
-7.31447846E+000	-1.17623003E+002	
-7.29376515E+000	-1.17609489E+002	
-7.27305185E+000	-1.17581569E+002	
-7.25233854E+000	-1.17605013E+002	
-7.23162524E+000	-1.17605539E+002	
-7.21091193E+000	-1.17594851E+002	
-7.19019862E+000	-1.17588122E+002	
-7.16948532E+000	-1.17632507E+002	
-7.14877201E+000	-1.17696436E+002	
-7.12805871E+000	-1.17738096E+002	
-7.10734540E+000	-1.17812000E+002	
-7.08663210E+000	-1.17852842E+002	
-7.06591879E+000	-1.17825056E+002	
-7.04520549E+000	-1.17810493E+002	
-7.02449218E+000	-1.17795704E+002	
-7.00377888E+000	-1.17766863E+002	
-6.98306557E+000	-1.17799988E+002	
-6.96235227E+000	-1.17766387E+002	
-6.94163896E+000	-1.17804471E+002	
-6.92092566E+000	-1.17861678E+002	
-6.90021235E+000	-1.17867282E+002	
-6.87949904E+000	-1.17850509E+002	
-6.85878574E+000	-1.17834782E+002	
-6.83807243E+000	-1.17856147E+002	
-6.81735913E+000	-1.17869394E+002	
-6.79664582E+000	-1.17822137E+002	
-6.77593252E+000	-1.17852144E+002	
-6.75521921E+000	-1.17803549E+002	
-6.73450591E+000	-1.17799854E+002	
-6.71379260E+000	-1.17784676E+002	
-6.69307930E+000	-1.17781550E+002	
-6.67236599E+000	-1.17740742E+002	
-6.65165269E+000	-1.17726386E+002	
-6.63093938E+000	-1.17741702E+002	
-6.61022608E+000	-1.17758564E+002	
-6.58951277E+000	-1.17749002E+002	
-6.56879947E+000	-1.17735665E+002	
-6.54808616E+000	-1.17706331E+002	
-6.52737285E+000	-1.17684727E+002	
-6.50665955E+000	-1.17717065E+002	
-6.48594624E+000	-1.17755729E+002	
-6.46523294E+000	-1.17785281E+002	
-6.44451963E+000	-1.17717306E+002	
-6.42380633E+000	-1.17676935E+002	
-6.40309302E+000	-1.17667420E+002	
-6.38237972E+000	-1.17639954E+002	
-6.36166641E+000	-1.17644159E+002	
-6.34095311E+000	-1.17647542E+002	
-6.32023980E+000	-1.17635913E+002	
-6.29952650E+000	-1.17650356E+002	
-6.27881319E+000	-1.17619650E+002	
-6.25809989E+000	-1.17636084E+002	
-6.23738658E+000	-1.17637138E+002	
-6.21667327E+000	-1.17626047E+002	
-6.19595997E+000	-1.17631270E+002	
-6.17524666E+000	-1.17617271E+002	
-6.15453336E+000	-1.17620764E+002	
-6.13382005E+000	-1.17601567E+002	
-6.11310675E+000	-1.17604887E+002	
-6.09239344E+000	-1.17602901E+002	
-6.07168014E+000	-1.17557407E+002	
-6.05096683E+000	-1.17628412E+002	
-6.03025353E+000	-1.17636813E+002	
-6.00954022E+000	-1.17605780E+002	
-5.98882692E+000	-1.17560617E+002	
-5.96811361E+000	-1.17568145E+002	
-5.94740031E+000	-1.17609216E+002	
-5.92668700E+000	-1.17651224E+002	
-5.90597369E+000	-1.17656550E+002	
-5.88526039E+000	-1.17702566E+002	
-5.86454708E+000	-1.17723349E+002	
-5.84383378E+000	-1.17689800E+002	
-5.82312047E+000	-1.17696056E+002	
-5.80240717E+000	-1.17655857E+002	
-5.78169386E+000	-1.17671527E+002	
-5.76098056E+000	-1.17671354E+002	
-5.74026725E+000	-1.17661978E+002	
-5.71955395E+000	-1.17683743E+002	
-5.69884064E+000	-1.17685458E+002	
-5.67812734E+000	-1.17704361E+002	
-5.65741403E+000	-1.17696598E+002	
-5.63670073E+000	-1.17703788E+002	
-5.61598742E+000	-1.17681951E+002	
-5.59527412E+000	-1.17649889E+002	
-5.57456081E+000	-1.17715090E+002	
-5.55384750E+000	-1.17640301E+002	
-5.53313420E+000	-1.17569192E+002	
-5.51242089E+000	-1.17590051E+002	
-5.49170759E+000	-1.17593923E+002	
-5.47099428E+000	-1.17572901E+002	
-5.45028098E+000	-1.17616005E+002	
-5.42956767E+000	-1.17659178E+002	
-5.40885437E+000	-1.17644636E+002	
-5.38814106E+000	-1.17639187E+002	
-5.36742776E+000	-1.17607424E+002	
-5.34671445E+000	-1.17635879E+002	
-5.32600115E+000	-1.17649399E+002	
-5.30528784E+000	-1.17677093E+002	
-5.28457454E+000	-1.17660478E+002	
-5.26386123E+000	-1.17638641E+002	
-5.24314792E+000	-1.17583793E+002	
-5.22243462E+000	-1.17569625E+002	
-5.20172131E+000	-1.17574204E+002	
-5.18100801E+000	-1.17544789E+002	
-5.16029470E+000	-1.17539534E+002	
-5.13958140E+000	-1.17494414E+002	
-5.11886809E+000	-1.17470517E+002	
-5.09815479E+000	-1.17475225E+002	
-5.07744148E+000	-1.17433796E+002	
-5.05672818E+000	-1.17505056E+002	
-5.03601487E+000	-1.17534867E+002	
-5.01530157E+000	-1.17574831E+002	
-4.99458826E+000	-1.17572473E+002	
-4.97387496E+000	-1.17509680E+002	
-4.95316165E+000	-1.17513182E+002	
-4.93244834E+000	-1.17473539E+002	
-4.91173504E+000	-1.17461060E+002	
-4.89102173E+000	-1.17450064E+002	
-4.87030843E+000	-1.17484430E+002	
-4.84959512E+000	-1.17470139E+002	
-4.82888182E+000	-1.17426858E+002	
-4.80816851E+000	-1.17415878E+002	
-4.78745521E+000	-1.17420535E+002	
-4.76674190E+000	-1.17450332E+002	
-4.74602860E+000	-1.17473458E+002	
-4.72531529E+000	-1.17519769E+002	
-4.70460199E+000	-1.17508128E+002	
-4.68388868E+000	-1.17542058E+002	
-4.66317538E+000	-1.17530965E+002	
-4.64246207E+000	-1.17579430E+002	
-4.62174877E+000	-1.17624000E+002	
-4.60103546E+000	-1.17650536E+002	
-4.58032215E+000	-1.17675180E+002	
-4.55960885E+000	-1.17642242E+002	
-4.53889554E+000	-1.17678968E+002	
-4.51818224E+000	-1.17604341E+002	
-4.49746893E+000	-1.17558476E+002	
-4.47675563E+000	-1.17611050E+002	
-4.45604232E+000	-1.17594119E+002	
-4.43532902E+000	-1.17594851E+002	
-4.41461571E+000	-1.17597889E+002	
-4.39390241E+000	-1.17610601E+002	
-4.37318910E+000	-1.17618409E+002	
-4.35247580E+000	-1.17601275E+002	
-4.33176249E+000	-1.17597949E+002	
-4.31104919E+000	-1.17593159E+002	
-4.29033588E+000	-1.17588646E+002	
-4.26962257E+000	-1.17584705E+002	
-4.24890927E+000	-1.17624703E+002	
-4.22819596E+000	-1.17630278E+002	
-4.20748266E+000	-1.17667270E+002	
-4.18676935E+000	-1.17634823E+002	
-4.16605605E+000	-1.17643342E+002	
-4.14534274E+000	-1.17652851E+002	
-4.12462944E+000	-1.17606097E+002	
-4.10391613E+000	-1.17606167E+002	
-4.08320283E+000	-1.17595551E+002	
-4.06248952E+000	-1.17585808E+002	
-4.04177622E+000	-1.17537190E+002	
-4.02106291E+000	-1.17570434E+002	
-4.00034961E+000	-1.17572383E+002	
-3.97963630E+000	-1.17537869E+002	
-3.95892299E+000	-1.17541706E+002	
-3.93820969E+000	-1.17513147E+002	
-3.91749638E+000	-1.17518347E+002	
-3.89678308E+000	-1.17488343E+002	
-3.87606977E+000	-1.17431895E+002	
-3.85535647E+000	-1.17442139E+002	
-3.83464316E+000	-1.17429860E+002	
-3.81392986E+000	-1.17429054E+002	
-3.79321655E+000	-1.17459264E+002	
-3.77250325E+000	-1.17409956E+002	
-3.75178994E+000	-1.17425704E+002	
-3.73107664E+000	-1.17426821E+002	
-3.71036333E+000	-1.17370495E+002	
-3.68965003E+000	-1.17387258E+002	
-3.66893672E+000	-1.17438210E+002	
-3.64822342E+000	-1.17402646E+002	
-3.62751011E+000	-1.17423664E+002	
-3.60679680E+000	-1.17425966E+002	
-3.58608350E+000	-1.17425134E+002	
-3.56537019E+000	-1.17453256E+002	
-3.54465689E+000	-1.17459709E+002	
-3.52394358E+000	-1.17484746E+002	
-3.50323028E+000	-1.17530776E+002	
-3.48251697E+000	-1.17564116E+002	
-3.46180367E+000	-1.17604093E+002	
-3.44109036E+000	-1.17622891E+002	
-3.42037706E+000	-1.17655702E+002	
-3.39966375E+000	-1.17705589E+002	
-3.37895045E+000	-1.17750727E+002	
-3.35823714E+000	-1.17739597E+002	
-3.33752384E+000	-1.17744835E+002	
-3.31681053E+000	-1.17745599E+002	
-3.29609722E+000	-1.17718568E+002	
-3.27538392E+000	-1.17739038E+002	
-3.25467061E+000	-1.17748897E+002	
-3.23395731E+000	-1.17748476E+002	
-3.21324400E+000	-1.17773845E+002	
-3.19253070E+000	-1.17773735E+002	
-3.17181739E+000	-1.17736670E+002	
-3.15110409E+000	-1.17718971E+002	
-3.13039078E+000	-1.17712065E+002	
-3.10967748E+000	-1.17748708E+002	
-3.08896417E+000	-1.17729635E+002	
-3.06825087E+000	-1.17713435E+002	
-3.04753756E+000	-1.17741640E+002	
-3.02682426E+000	-1.17725355E+002	
-3.00611095E+000	-1.17660010E+002	
-2.98539764E+000	-1.17707921E+002	
-2.96468434E+000	-1.17671662E+002	
-2.94397103E+000	-1.17648191E+002	
-2.92325773E+000	-1.17604141E+002	
-2.90254442E+000	-1.17585537E+002	
-2.88183112E+000	-1.17601006E+002	
-2.86111781E+000	-1.17647760E+002	
-2.84040451E+000	-1.17689568E+002	
-2.81969120E+000	-1.17725562E+002	
-2.79897790E+000	-1.17794173E+002	
-2.77826459E+000	-1.17764963E+002	
-2.75755129E+000	-1.17737949E+002	
-2.73683798E+000	-1.17747614E+002	
-2.71612468E+000	-1.17692962E+002	
-2.69541137E+000	-1.17682347E+002	
-2.67469807E+000	-1.17751140E+002	
-2.65398476E+000	-1.17782690E+002	
-2.63327145E+000	-1.17781856E+002	
-2.61255815E+000	-1.17726655E+002	
-2.59184484E+000	-1.17732395E+002	
-2.57113154E+000	-1.17730291E+002	
-2.55041823E+000	-1.17724629E+002	
-2.52970493E+000	-1.17775243E+002	
-2.50899162E+000	-1.17838442E+002	
-2.48827832E+000	-1.17823067E+002	
-2.46756501E+000	-1.17832336E+002	
-2.44685171E+000	-1.17836110E+002	
-2.42613840E+000	-1.17866127E+002	
-2.40542510E+000	-1.17887175E+002	
-2.38471179E+000	-1.17880564E+002	
-2.36399849E+000	-1.17863004E+002	
-2.34328518E+000	-1.17813680E+002	
-2.32257187E+000	-1.17774623E+002	
-2.30185857E+000	-1.17706252E+002	
-2.28114526E+000	-1.17710867E+002	
-2.26043196E+000	-1.17778382E+002	
-2.23971865E+000	-1.17755137E+002	
-2.21900535E+000	-1.17807316E+002	
-2.19829204E+000	-1.17835341E+002	
-2.17757874E+000	-1.17794639E+002	
-2.15686543E+000	-1.17770704E+002	
-2.13615213E+000	-1.17813299E+002	
-2.11543882E+000	-1.17822518E+002	
-2.09472552E+000	-1.17841776E+002	
-2.07401221E+000	-1.17817965E+002	
-2.05329891E+000	-1.17772390E+002	
-2.03258560E+000	-1.17784707E+002	
-2.01187229E+000	-1.17779056E+002	
-1.99115899E+000	-1.17773863E+002	
-1.97044568E+000	-1.17712524E+002	
-1.94973238E+000	-1.17719713E+002	
-1.92901907E+000	-1.17696509E+002	
-1.90830577E+000	-1.17645838E+002	
-1.88759246E+000	-1.17630984E+002	
-1.86687916E+000	-1.17645788E+002	
-1.84616585E+000	-1.17616025E+002	
-1.82545255E+000	-1.17688998E+002	
-1.80473924E+000	-1.17689977E+002	
-1.78402594E+000	-1.17720980E+002	
-1.76331263E+000	-1.17728457E+002	
-1.74259933E+000	-1.17697496E+002	
-1.72188602E+000	-1.17696269E+002	
-1.70117272E+000	-1.17753323E+002	
-1.68045941E+000	-1.17771784E+002	
-1.65974610E+000	-1.17728398E+002	
-1.63903280E+000	-1.17697064E+002	
-1.61831949E+000	-1.17743455E+002	
-1.59760619E+000	-1.17749265E+002	
-1.57689288E+000	-1.17758015E+002	
-1.55617958E+000	-1.17819692E+002	
-1.53546627E+000	-1.17807331E+002	
-1.51475297E+000	-1.17805447E+002	
-1.49403966E+000	-1.17772851E+002	
-1.47332636E+000	-1.17805496E+002	
-1.45261305E+000	-1.17773296E+002	
-1.43189975E+000	-1.17775752E+002	
-1.41118644E+000	-1.17767883E+002	
-1.39047314E+000	-1.17787351E+002	
-1.36975983E+000	-1.17755817E+002	
-1.34904652E+000	-1.17754726E+002	
-1.32833322E+000	-1.17706242E+002	
-1.30761991E+000	-1.17669355E+002	
-1.28690661E+000	-1.17675296E+002	
-1.26619330E+000	-1.17657705E+002	
-1.24548000E+000	-1.17690808E+002	
-1.22476669E+000	-1.17725022E+002	
-1.20405339E+000	-1.17632561E+002	
-1.18334008E+000	-1.17629420E+002	
-1.16262678E+000	-1.17699759E+002	
-1.14191347E+000	-1.17723324E+002	
-1.12120017E+000	-1.17716354E+002	
-1.10048686E+000	-1.17691246E+002	
-1.07977356E+000	-1.17696717E+002	
-1.05906025E+000	-1.17716668E+002	
-1.03834694E+000	-1.17691358E+002	
-1.01763364E+000	-1.17637998E+002	
-9.96920334E-001	-1.17600656E+002	
-9.76207029E-001	-1.17587009E+002	
-9.55493724E-001	-1.17604866E+002	
-9.34780418E-001	-1.17626415E+002	
-9.14067113E-001	-1.17686828E+002	
-8.93353808E-001	-1.17678941E+002	
-8.72640502E-001	-1.17657287E+002	
-8.51927197E-001	-1.17704766E+002	
-8.31213892E-001	-1.17735873E+002	
-8.10500586E-001	-1.17786630E+002	
-7.89787281E-001	-1.17800601E+002	
-7.69073976E-001	-1.17814797E+002	
-7.48360671E-001	-1.17798900E+002	
-7.27647365E-001	-1.17792721E+002	
-7.06934060E-001	-1.17833254E+002	
-6.86220755E-001	-1.17856386E+002	
-6.65507449E-001	-1.17884711E+002	
-6.44794144E-001	-1.17879588E+002	
-6.24080839E-001	-1.17841838E+002	
-6.03367533E-001	-1.17830459E+002	
-5.82654228E-001	-1.17813059E+002	
-5.61940923E-001	-1.17764074E+002	
-5.41227617E-001	-1.17729034E+002	
-5.20514312E-001	-1.17748635E+002	
-4.99801007E-001	-1.17814348E+002	
-4.79087701E-001	-1.17871756E+002	
-4.58374396E-001	-1.17891784E+002	
-4.37661091E-001	-1.17859421E+002	
-4.16947785E-001	-1.17814646E+002	
-3.96234480E-001	-1.17807036E+002	
-3.75521175E-001	-1.17828798E+002	
-3.54807869E-001	-1.17826249E+002	
-3.34094564E-001	-1.17831358E+002	
-3.13381259E-001	-1.17853668E+002	
-2.92667954E-001	-1.17852089E+002	
-2.71954648E-001	-1.17814776E+002	
-2.51241343E-001	-1.13467139E+002	
-2.30528038E-001	-1.13211597E+002	
-2.09814732E-001	-1.13202587E+002	
-1.89101427E-001	-1.13169163E+002	
-1.68388122E-001	-1.13127144E+002	
-1.47674816E-001	-1.13110846E+002	
-1.26961511E-001	-1.13108289E+002	
-1.06248206E-001	-1.13072763E+002	
-8.55349003E-002	-1.13062364E+002	
-6.48215950E-002	-1.13057356E+002	
-4.41082897E-002	-1.13067079E+002	
-2.33949844E-002	-1.13057020E+002	
-2.68167905E-003	-1.13053168E+002	
1.80316263E-002	-1.13022254E+002	
3.87449316E-002	-1.13005387E+002	
5.94582369E-002	-1.13005991E+002	
8.01715422E-002	-1.13015703E+002	
1.00884848E-001	-1.13011762E+002	
1.21598153E-001	-1.12980982E+002	
1.42311458E-001	-1.12966732E+002	
1.63024763E-001	-1.12960363E+002	
1.83738069E-001	-1.12941496E+002	
2.04451374E-001	-1.12915155E+002	
2.25164679E-001	-1.12921555E+002	
2.45877985E-001	-1.15669256E+002	
2.66591290E-001	-1.17031169E+002	
2.87304595E-001	-1.17036470E+002	
3.08017901E-001	-1.17094571E+002	
3.28731206E-001	-1.17144120E+002	
3.49444511E-001	-1.17156755E+002	
3.70157817E-001	-1.17197671E+002	
3.90871122E-001	-1.17268497E+002	
4.11584427E-001	-1.17240174E+002	
4.32297733E-001	-1.17218765E+002	
4.53011038E-001	-1.17209430E+002	
4.73724343E-001	-1.17226337E+002	
4.94437649E-001	-1.17216649E+002	
5.15150954E-001	-1.17253139E+002	
5.35864259E-001	-1.17253770E+002	
5.56577565E-001	-1.17294921E+002	
5.77290870E-001	-1.17247108E+002	
5.98004175E-001	-1.17216870E+002	
6.18717481E-001	-1.17259285E+002	
6.39430786E-001	-1.17266226E+002	
6.60144091E-001	-1.17246965E+002	
6.80857396E-001	-1.17282111E+002	
7.01570702E-001	-1.17306319E+002	
7.22284007E-001	-1.17310414E+002	
7.42997312E-001	-1.17283566E+002	
7.63710618E-001	-1.17281586E+002	
7.84423923E-001	-1.17257845E+002	
8.05137228E-001	-1.17237657E+002	
8.25850534E-001	-1.17221044E+002	
8.46563839E-001	-1.17190984E+002	
8.67277144E-001	-1.17163325E+002	
8.87990450E-001	-1.17149409E+002	
9.08703755E-001	-1.17245909E+002	
9.29417060E-001	-1.17295799E+002	
9.50130366E-001	-1.17320109E+002	
9.70843671E-001	-1.17277364E+002	
9.91556976E-001	-1.17265881E+002	
1.01227028E+000	-1.17290992E+002	
1.03298359E+000	-1.17290800E+002	
1.05369689E+000	-1.17259235E+002	
1.07441020E+000	-1.17276967E+002	
1.09512350E+000	-1.17291896E+002	
1.11583681E+000	-1.17349929E+002	
1.13655011E+000	-1.17355194E+002	
1.15726342E+000	-1.17355042E+002	
1.17797672E+000	-1.17321975E+002	
1.19869003E+000	-1.17373027E+002	
1.21940333E+000	-1.17352284E+002	
1.24011664E+000	-1.17364611E+002	
1.26082995E+000	-1.17358159E+002	
1.28154325E+000	-1.17361148E+002	
1.30225656E+000	-1.17368765E+002	
1.32296986E+000	-1.17368519E+002	
1.34368317E+000	-1.17400872E+002	
1.36439647E+000	-1.17469232E+002	
1.38510978E+000	-1.17479406E+002	
1.40582308E+000	-1.17407560E+002	
1.42653639E+000	-1.17409767E+002	
1.44724969E+000	-1.17397789E+002	
1.46796300E+000	-1.17410681E+002	
1.48867630E+000	-1.17442140E+002	
1.50938961E+000	-1.17423547E+002	
1.53010291E+000	-1.17425785E+002	
1.55081622E+000	-1.17406751E+002	
1.57152953E+000	-1.17403329E+002	
