Acquired on 4/26/2021 at 16:37:24
Calibrated on 4/26/2021 at 14:40:00
Device Descriptor:  [none]
Scan Range (nm):  1539.624  --  1560.517
Measurement Type:  Reflection
Group Index:  1.500
Gain:  24 dB
Domain:  Time
Spatial Resolution (mm):  50.000000
Frequency domain window was applied to measurement data.
Number of Data Points (in this file):  16384
NOTE: Data stored in this file is decimated by a factor of 64.

Time (ns)	Amplitude (dB)	
-1.00072081E+001	-1.20275194E+002	
-9.98649484E+000	-1.19947232E+002	
-9.96578154E+000	-1.19620039E+002	
-9.94506823E+000	-1.19361894E+002	
-9.92435493E+000	-1.19131895E+002	
-9.90364162E+000	-1.18902412E+002	
-9.88292832E+000	-1.18685136E+002	
-9.86221501E+000	-1.18465418E+002	
-9.84150171E+000	-1.18273804E+002	
-9.82078840E+000	-1.18096661E+002	
-9.80007509E+000	-1.17894208E+002	
-9.77936179E+000	-1.17708612E+002	
-9.75864848E+000	-1.17660092E+002	
-9.73793518E+000	-1.17693052E+002	
-9.71722187E+000	-1.17692907E+002	
-9.69650857E+000	-1.17695943E+002	
-9.67579526E+000	-1.17765228E+002	
-9.65508196E+000	-1.17745554E+002	
-9.63436865E+000	-1.17689075E+002	
-9.61365535E+000	-1.17687635E+002	
-9.59294204E+000	-1.17696851E+002	
-9.57222874E+000	-1.17733594E+002	
-9.55151543E+000	-1.17762273E+002	
-9.53080213E+000	-1.17746052E+002	
-9.51008882E+000	-1.17780637E+002	
-9.48937552E+000	-1.17803402E+002	
-9.46866221E+000	-1.17786469E+002	
-9.44794890E+000	-1.17761918E+002	
-9.42723560E+000	-1.17709835E+002	
-9.40652229E+000	-1.17694855E+002	
-9.38580899E+000	-1.17665459E+002	
-9.36509568E+000	-1.17665661E+002	
-9.34438238E+000	-1.17620672E+002	
-9.32366907E+000	-1.17593198E+002	
-9.30295577E+000	-1.17599419E+002	
-9.28224246E+000	-1.17600232E+002	
-9.26152916E+000	-1.17548249E+002	
-9.24081585E+000	-1.17484224E+002	
-9.22010255E+000	-1.17461611E+002	
-9.19938924E+000	-1.17496902E+002	
-9.17867594E+000	-1.17470695E+002	
-9.15796263E+000	-1.17462498E+002	
-9.13724932E+000	-1.17521449E+002	
-9.11653602E+000	-1.17525824E+002	
-9.09582271E+000	-1.17503804E+002	
-9.07510941E+000	-1.17502577E+002	
-9.05439610E+000	-1.17493414E+002	
-9.03368280E+000	-1.17377643E+002	
-9.01296949E+000	-1.17367345E+002	
-8.99225619E+000	-1.17368165E+002	
-8.97154288E+000	-1.17416232E+002	
-8.95082958E+000	-1.17431462E+002	
-8.93011627E+000	-1.17462326E+002	
-8.90940297E+000	-1.17488083E+002	
-8.88868966E+000	-1.17506491E+002	
-8.86797636E+000	-1.17489798E+002	
-8.84726305E+000	-1.17497986E+002	
-8.82654974E+000	-1.17479104E+002	
-8.80583644E+000	-1.17498047E+002	
-8.78512313E+000	-1.17495519E+002	
-8.76440983E+000	-1.17498204E+002	
-8.74369652E+000	-1.17558305E+002	
-8.72298322E+000	-1.17582155E+002	
-8.70226991E+000	-1.17515905E+002	
-8.68155661E+000	-1.17496170E+002	
-8.66084330E+000	-1.17527837E+002	
-8.64013000E+000	-1.17486791E+002	
-8.61941669E+000	-1.17439578E+002	
-8.59870339E+000	-1.17466288E+002	
-8.57799008E+000	-1.17466117E+002	
-8.55727678E+000	-1.17437302E+002	
-8.53656347E+000	-1.17551374E+002	
-8.51585017E+000	-1.17556446E+002	
-8.49513686E+000	-1.17550327E+002	
-8.47442355E+000	-1.17537067E+002	
-8.45371025E+000	-1.17551141E+002	
-8.43299694E+000	-1.17577774E+002	
-8.41228364E+000	-1.17545193E+002	
-8.39157033E+000	-1.17534123E+002	
-8.37085703E+000	-1.17583094E+002	
-8.35014372E+000	-1.17600962E+002	
-8.32943042E+000	-1.17629584E+002	
-8.30871711E+000	-1.17575948E+002	
-8.28800381E+000	-1.17608995E+002	
-8.26729050E+000	-1.17613900E+002	
-8.24657720E+000	-1.17607861E+002	
-8.22586389E+000	-1.17582098E+002	
-8.20515059E+000	-1.17633791E+002	
-8.18443728E+000	-1.17631776E+002	
-8.16372397E+000	-1.17616534E+002	
-8.14301067E+000	-1.17578323E+002	
-8.12229736E+000	-1.17593449E+002	
-8.10158406E+000	-1.17596137E+002	
-8.08087075E+000	-1.17595870E+002	
-8.06015745E+000	-1.17573642E+002	
-8.03944414E+000	-1.17520541E+002	
-8.01873084E+000	-1.17541083E+002	
-7.99801753E+000	-1.17537682E+002	
-7.97730423E+000	-1.17534080E+002	
-7.95659092E+000	-1.17505154E+002	
-7.93587762E+000	-1.17525848E+002	
-7.91516431E+000	-1.17564147E+002	
-7.89445101E+000	-1.17558281E+002	
-7.87373770E+000	-1.17530730E+002	
-7.85302439E+000	-1.17521276E+002	
-7.83231109E+000	-1.17496188E+002	
-7.81159778E+000	-1.17539698E+002	
-7.79088448E+000	-1.17560823E+002	
-7.77017117E+000	-1.17574168E+002	
-7.74945787E+000	-1.17582856E+002	
-7.72874456E+000	-1.17605932E+002	
-7.70803126E+000	-1.17570812E+002	
-7.68731795E+000	-1.17600540E+002	
-7.66660465E+000	-1.17589680E+002	
-7.64589134E+000	-1.17594704E+002	
-7.62517804E+000	-1.17601024E+002	
-7.60446473E+000	-1.17527454E+002	
-7.58375143E+000	-1.17543095E+002	
-7.56303812E+000	-1.17578197E+002	
-7.54232482E+000	-1.17647000E+002	
-7.52161151E+000	-1.17632935E+002	
-7.50089820E+000	-1.17649983E+002	
-7.48018490E+000	-1.17637822E+002	
-7.45947159E+000	-1.17689697E+002	
-7.43875829E+000	-1.17617201E+002	
-7.41804498E+000	-1.17530102E+002	
-7.39733168E+000	-1.17570179E+002	
-7.37661837E+000	-1.17571647E+002	
-7.35590507E+000	-1.17582744E+002	
-7.33519176E+000	-1.17609819E+002	
-7.31447846E+000	-1.17636650E+002	
-7.29376515E+000	-1.17619796E+002	
-7.27305185E+000	-1.17593597E+002	
-7.25233854E+000	-1.17622414E+002	
-7.23162524E+000	-1.17623585E+002	
-7.21091193E+000	-1.17612410E+002	
-7.19019862E+000	-1.17605912E+002	
-7.16948532E+000	-1.17650930E+002	
-7.14877201E+000	-1.17719807E+002	
-7.12805871E+000	-1.17760193E+002	
-7.10734540E+000	-1.17836680E+002	
-7.08663210E+000	-1.17875519E+002	
-7.06591879E+000	-1.17849381E+002	
-7.04520549E+000	-1.17836313E+002	
-7.02449218E+000	-1.17818443E+002	
-7.00377888E+000	-1.17788742E+002	
-6.98306557E+000	-1.17812009E+002	
-6.96235227E+000	-1.17770363E+002	
-6.94163896E+000	-1.17806219E+002	
-6.92092566E+000	-1.17874736E+002	
-6.90021235E+000	-1.17877763E+002	
-6.87949904E+000	-1.17862067E+002	
-6.85878574E+000	-1.17843245E+002	
-6.83807243E+000	-1.17863457E+002	
-6.81735913E+000	-1.17876271E+002	
-6.79664582E+000	-1.17830925E+002	
-6.77593252E+000	-1.17855295E+002	
-6.75521921E+000	-1.17801741E+002	
-6.73450591E+000	-1.17797470E+002	
-6.71379260E+000	-1.17778576E+002	
-6.69307930E+000	-1.17773514E+002	
-6.67236599E+000	-1.17736235E+002	
-6.65165269E+000	-1.17719883E+002	
-6.63093938E+000	-1.17727846E+002	
-6.61022608E+000	-1.17738631E+002	
-6.58951277E+000	-1.17731659E+002	
-6.56879947E+000	-1.17719886E+002	
-6.54808616E+000	-1.17690157E+002	
-6.52737285E+000	-1.17675581E+002	
-6.50665955E+000	-1.17705227E+002	
-6.48594624E+000	-1.17748393E+002	
-6.46523294E+000	-1.17782745E+002	
-6.44451963E+000	-1.17715151E+002	
-6.42380633E+000	-1.17668813E+002	
-6.40309302E+000	-1.17657113E+002	
-6.38237972E+000	-1.17626547E+002	
-6.36166641E+000	-1.17629955E+002	
-6.34095311E+000	-1.17636594E+002	
-6.32023980E+000	-1.17629140E+002	
-6.29952650E+000	-1.17643383E+002	
-6.27881319E+000	-1.17614693E+002	
-6.25809989E+000	-1.17633416E+002	
-6.23738658E+000	-1.17622842E+002	
-6.21667327E+000	-1.17609340E+002	
-6.19595997E+000	-1.17619816E+002	
-6.17524666E+000	-1.17607280E+002	
-6.15453336E+000	-1.17609894E+002	
-6.13382005E+000	-1.17595325E+002	
-6.11310675E+000	-1.17601916E+002	
-6.09239344E+000	-1.17599776E+002	
-6.07168014E+000	-1.17551941E+002	
-6.05096683E+000	-1.17621401E+002	
-6.03025353E+000	-1.17627333E+002	
-6.00954022E+000	-1.17595867E+002	
-5.98882692E+000	-1.17541241E+002	
-5.96811361E+000	-1.17548006E+002	
-5.94740031E+000	-1.17591277E+002	
-5.92668700E+000	-1.17637391E+002	
-5.90597369E+000	-1.17647043E+002	
-5.88526039E+000	-1.17697964E+002	
-5.86454708E+000	-1.17718680E+002	
-5.84383378E+000	-1.17686365E+002	
-5.82312047E+000	-1.17693975E+002	
-5.80240717E+000	-1.17662320E+002	
-5.78169386E+000	-1.17675931E+002	
-5.76098056E+000	-1.17680699E+002	
-5.74026725E+000	-1.17687316E+002	
-5.71955395E+000	-1.17718230E+002	
-5.69884064E+000	-1.17715651E+002	
-5.67812734E+000	-1.17735917E+002	
-5.65741403E+000	-1.17729917E+002	
-5.63670073E+000	-1.17738754E+002	
-5.61598742E+000	-1.17722336E+002	
-5.59527412E+000	-1.17680057E+002	
-5.57456081E+000	-1.17748292E+002	
-5.55384750E+000	-1.17680875E+002	
-5.53313420E+000	-1.17610220E+002	
-5.51242089E+000	-1.17632498E+002	
-5.49170759E+000	-1.17642415E+002	
-5.47099428E+000	-1.17621377E+002	
-5.45028098E+000	-1.17667532E+002	
-5.42956767E+000	-1.17708407E+002	
-5.40885437E+000	-1.17688984E+002	
-5.38814106E+000	-1.17678693E+002	
-5.36742776E+000	-1.17652370E+002	
-5.34671445E+000	-1.17682461E+002	
-5.32600115E+000	-1.17689087E+002	
-5.30528784E+000	-1.17713425E+002	
-5.28457454E+000	-1.17703743E+002	
-5.26386123E+000	-1.17686111E+002	
-5.24314792E+000	-1.17627506E+002	
-5.22243462E+000	-1.17605639E+002	
-5.20172131E+000	-1.17617146E+002	
-5.18100801E+000	-1.17583657E+002	
-5.16029470E+000	-1.17583419E+002	
-5.13958140E+000	-1.17533472E+002	
-5.11886809E+000	-1.17506484E+002	
-5.09815479E+000	-1.17519969E+002	
-5.07744148E+000	-1.17480350E+002	
-5.05672818E+000	-1.17545759E+002	
-5.03601487E+000	-1.17576256E+002	
-5.01530157E+000	-1.17618378E+002	
-4.99458826E+000	-1.17626229E+002	
-4.97387496E+000	-1.17575658E+002	
-4.95316165E+000	-1.17576473E+002	
-4.93244834E+000	-1.17533502E+002	
-4.91173504E+000	-1.17525657E+002	
-4.89102173E+000	-1.17518955E+002	
-4.87030843E+000	-1.17546745E+002	
-4.84959512E+000	-1.17531684E+002	
-4.82888182E+000	-1.17490099E+002	
-4.80816851E+000	-1.17472470E+002	
-4.78745521E+000	-1.17479234E+002	
-4.76674190E+000	-1.17506035E+002	
-4.74602860E+000	-1.17522595E+002	
-4.72531529E+000	-1.17576451E+002	
-4.70460199E+000	-1.17559550E+002	
-4.68388868E+000	-1.17597495E+002	
-4.66317538E+000	-1.17578191E+002	
-4.64246207E+000	-1.17625974E+002	
-4.62174877E+000	-1.17675077E+002	
-4.60103546E+000	-1.17702977E+002	
-4.58032215E+000	-1.17725265E+002	
-4.55960885E+000	-1.17687142E+002	
-4.53889554E+000	-1.17720064E+002	
-4.51818224E+000	-1.17641637E+002	
-4.49746893E+000	-1.17588745E+002	
-4.47675563E+000	-1.17632279E+002	
-4.45604232E+000	-1.17617046E+002	
-4.43532902E+000	-1.17622043E+002	
-4.41461571E+000	-1.17618969E+002	
-4.39390241E+000	-1.17625180E+002	
-4.37318910E+000	-1.17635627E+002	
-4.35247580E+000	-1.17619614E+002	
-4.33176249E+000	-1.17616217E+002	
-4.31104919E+000	-1.17612519E+002	
-4.29033588E+000	-1.17598984E+002	
-4.26962257E+000	-1.17587482E+002	
-4.24890927E+000	-1.17631139E+002	
-4.22819596E+000	-1.17638792E+002	
-4.20748266E+000	-1.17675820E+002	
-4.18676935E+000	-1.17641957E+002	
-4.16605605E+000	-1.17650725E+002	
-4.14534274E+000	-1.17659663E+002	
-4.12462944E+000	-1.17609557E+002	
-4.10391613E+000	-1.17603539E+002	
-4.08320283E+000	-1.17594844E+002	
-4.06248952E+000	-1.17592863E+002	
-4.04177622E+000	-1.17548740E+002	
-4.02106291E+000	-1.17581713E+002	
-4.00034961E+000	-1.17587568E+002	
-3.97963630E+000	-1.17544413E+002	
-3.95892299E+000	-1.17547296E+002	
-3.93820969E+000	-1.17512388E+002	
-3.91749638E+000	-1.17521464E+002	
-3.89678308E+000	-1.17496176E+002	
-3.87606977E+000	-1.17437538E+002	
-3.85535647E+000	-1.17441094E+002	
-3.83464316E+000	-1.17425761E+002	
-3.81392986E+000	-1.17423430E+002	
-3.79321655E+000	-1.17456474E+002	
-3.77250325E+000	-1.17412453E+002	
-3.75178994E+000	-1.17429719E+002	
-3.73107664E+000	-1.17430747E+002	
-3.71036333E+000	-1.17368973E+002	
-3.68965003E+000	-1.17377789E+002	
-3.66893672E+000	-1.17426642E+002	
-3.64822342E+000	-1.17389963E+002	
-3.62751011E+000	-1.17418079E+002	
-3.60679680E+000	-1.17420443E+002	
-3.58608350E+000	-1.17420590E+002	
-3.56537019E+000	-1.17440817E+002	
-3.54465689E+000	-1.17441447E+002	
-3.52394358E+000	-1.17465438E+002	
-3.50323028E+000	-1.17506839E+002	
-3.48251697E+000	-1.17545143E+002	
-3.46180367E+000	-1.17586651E+002	
-3.44109036E+000	-1.17611519E+002	
-3.42037706E+000	-1.17644108E+002	
-3.39966375E+000	-1.17685454E+002	
-3.37895045E+000	-1.17728861E+002	
-3.35823714E+000	-1.17722013E+002	
-3.33752384E+000	-1.17733790E+002	
-3.31681053E+000	-1.17739940E+002	
-3.29609722E+000	-1.17717804E+002	
-3.27538392E+000	-1.17735044E+002	
-3.25467061E+000	-1.17746961E+002	
-3.23395731E+000	-1.17737775E+002	
-3.21324400E+000	-1.17766909E+002	
-3.19253070E+000	-1.17777197E+002	
-3.17181739E+000	-1.17740511E+002	
-3.15110409E+000	-1.17729646E+002	
-3.13039078E+000	-1.17723550E+002	
-3.10967748E+000	-1.17761317E+002	
-3.08896417E+000	-1.17740560E+002	
-3.06825087E+000	-1.17725472E+002	
-3.04753756E+000	-1.17762245E+002	
-3.02682426E+000	-1.17742714E+002	
-3.00611095E+000	-1.17675660E+002	
-2.98539764E+000	-1.17721215E+002	
-2.96468434E+000	-1.17678915E+002	
-2.94397103E+000	-1.17654311E+002	
-2.92325773E+000	-1.17607812E+002	
-2.90254442E+000	-1.17593485E+002	
-2.88183112E+000	-1.17608869E+002	
-2.86111781E+000	-1.17655024E+002	
-2.84040451E+000	-1.17691276E+002	
-2.81969120E+000	-1.17721710E+002	
-2.79897790E+000	-1.17789037E+002	
-2.77826459E+000	-1.17759681E+002	
-2.75755129E+000	-1.17729041E+002	
-2.73683798E+000	-1.17741421E+002	
-2.71612468E+000	-1.17689390E+002	
-2.69541137E+000	-1.17678217E+002	
-2.67469807E+000	-1.17748980E+002	
-2.65398476E+000	-1.17770770E+002	
-2.63327145E+000	-1.17763225E+002	
-2.61255815E+000	-1.17707996E+002	
-2.59184484E+000	-1.17714094E+002	
-2.57113154E+000	-1.17710796E+002	
-2.55041823E+000	-1.17701936E+002	
-2.52970493E+000	-1.17756504E+002	
-2.50899162E+000	-1.17825627E+002	
-2.48827832E+000	-1.17813226E+002	
-2.46756501E+000	-1.17825340E+002	
-2.44685171E+000	-1.17825651E+002	
-2.42613840E+000	-1.17859891E+002	
-2.40542510E+000	-1.17885341E+002	
-2.38471179E+000	-1.17878326E+002	
-2.36399849E+000	-1.17863511E+002	
-2.34328518E+000	-1.17814530E+002	
-2.32257187E+000	-1.17779172E+002	
-2.30185857E+000	-1.17709937E+002	
-2.28114526E+000	-1.17716248E+002	
-2.26043196E+000	-1.17786374E+002	
-2.23971865E+000	-1.17763999E+002	
-2.21900535E+000	-1.17816168E+002	
-2.19829204E+000	-1.17843372E+002	
-2.17757874E+000	-1.17800347E+002	
-2.15686543E+000	-1.17778310E+002	
-2.13615213E+000	-1.17820273E+002	
-2.11543882E+000	-1.17828646E+002	
-2.09472552E+000	-1.17846911E+002	
-2.07401221E+000	-1.17824418E+002	
-2.05329891E+000	-1.17780760E+002	
-2.03258560E+000	-1.17790227E+002	
-2.01187229E+000	-1.17788370E+002	
-1.99115899E+000	-1.17782987E+002	
-1.97044568E+000	-1.17723045E+002	
-1.94973238E+000	-1.17739992E+002	
-1.92901907E+000	-1.17720658E+002	
-1.90830577E+000	-1.17672978E+002	
-1.88759246E+000	-1.17661279E+002	
-1.86687916E+000	-1.17674024E+002	
-1.84616585E+000	-1.17637582E+002	
-1.82545255E+000	-1.17709342E+002	
-1.80473924E+000	-1.17710508E+002	
-1.78402594E+000	-1.17745619E+002	
-1.76331263E+000	-1.17749276E+002	
-1.74259933E+000	-1.17717532E+002	
-1.72188602E+000	-1.17718617E+002	
-1.70117272E+000	-1.17779546E+002	
-1.68045941E+000	-1.17795395E+002	
-1.65974610E+000	-1.17753031E+002	
-1.63903280E+000	-1.17723012E+002	
-1.61831949E+000	-1.17773852E+002	
-1.59760619E+000	-1.17783269E+002	
-1.57689288E+000	-1.17798162E+002	
-1.55617958E+000	-1.17858049E+002	
-1.53546627E+000	-1.17846283E+002	
-1.51475297E+000	-1.17837822E+002	
-1.49403966E+000	-1.17802454E+002	
-1.47332636E+000	-1.17832381E+002	
-1.45261305E+000	-1.17795942E+002	
-1.43189975E+000	-1.17793214E+002	
-1.41118644E+000	-1.17778976E+002	
-1.39047314E+000	-1.17796437E+002	
-1.36975983E+000	-1.17768901E+002	
-1.34904652E+000	-1.17777376E+002	
-1.32833322E+000	-1.17730062E+002	
-1.30761991E+000	-1.17694346E+002	
-1.28690661E+000	-1.17691093E+002	
-1.26619330E+000	-1.17673810E+002	
-1.24548000E+000	-1.17709897E+002	
-1.22476669E+000	-1.17741535E+002	
-1.20405339E+000	-1.17642528E+002	
-1.18334008E+000	-1.17643063E+002	
-1.16262678E+000	-1.17711684E+002	
-1.14191347E+000	-1.17730651E+002	
-1.12120017E+000	-1.17718868E+002	
-1.10048686E+000	-1.17694970E+002	
-1.07977356E+000	-1.17701480E+002	
-1.05906025E+000	-1.17723028E+002	
-1.03834694E+000	-1.17696423E+002	
-1.01763364E+000	-1.17647332E+002	
-9.96920334E-001	-1.17603256E+002	
-9.76207029E-001	-1.17587359E+002	
-9.55493724E-001	-1.17600854E+002	
-9.34780418E-001	-1.17622070E+002	
-9.14067113E-001	-1.17682795E+002	
-8.93353808E-001	-1.17680446E+002	
-8.72640502E-001	-1.17661310E+002	
-8.51927197E-001	-1.17698058E+002	
-8.31213892E-001	-1.17728366E+002	
-8.10500586E-001	-1.17773377E+002	
-7.89787281E-001	-1.17792050E+002	
-7.69073976E-001	-1.17804003E+002	
-7.48360671E-001	-1.17785775E+002	
-7.27647365E-001	-1.17779205E+002	
-7.06934060E-001	-1.17820557E+002	
-6.86220755E-001	-1.17841495E+002	
-6.65507449E-001	-1.17866884E+002	
-6.44794144E-001	-1.17867823E+002	
-6.24080839E-001	-1.17837623E+002	
-6.03367533E-001	-1.17822404E+002	
-5.82654228E-001	-1.17796291E+002	
-5.61940923E-001	-1.17743925E+002	
-5.41227617E-001	-1.17708817E+002	
-5.20514312E-001	-1.17719194E+002	
-4.99801007E-001	-1.17793584E+002	
-4.79087701E-001	-1.17856870E+002	
-4.58374396E-001	-1.17880461E+002	
-4.37661091E-001	-1.17841454E+002	
-4.16947785E-001	-1.17792272E+002	
-3.96234480E-001	-1.17780811E+002	
-3.75521175E-001	-1.17796840E+002	
-3.54807869E-001	-1.17797075E+002	
-3.34094564E-001	-1.17798678E+002	
-3.13381259E-001	-1.17827279E+002	
-2.92667954E-001	-1.17824804E+002	
-2.71954648E-001	-1.17792101E+002	
-2.51241343E-001	-1.13388172E+002	
-2.30528038E-001	-1.13135161E+002	
-2.09814732E-001	-1.13125966E+002	
-1.89101427E-001	-1.13093262E+002	
-1.68388122E-001	-1.13054429E+002	
-1.47674816E-001	-1.13039580E+002	
-1.26961511E-001	-1.13035877E+002	
-1.06248206E-001	-1.12998621E+002	
-8.55349003E-002	-1.12987129E+002	
-6.48215950E-002	-1.12980712E+002	
-4.41082897E-002	-1.12990365E+002	
-2.33949844E-002	-1.12982902E+002	
-2.68167905E-003	-1.12978975E+002	
1.80316263E-002	-1.12946167E+002	
3.87449316E-002	-1.12929444E+002	
5.94582369E-002	-1.12930614E+002	
8.01715422E-002	-1.12941670E+002	
1.00884848E-001	-1.12936592E+002	
1.21598153E-001	-1.12906086E+002	
1.42311458E-001	-1.12893955E+002	
1.63024763E-001	-1.12889544E+002	
1.83738069E-001	-1.12869438E+002	
2.04451374E-001	-1.12843184E+002	
2.25164679E-001	-1.12850026E+002	
2.45877985E-001	-1.15634142E+002	
2.66591290E-001	-1.17011428E+002	
2.87304595E-001	-1.17016886E+002	
3.08017901E-001	-1.17077222E+002	
3.28731206E-001	-1.17129753E+002	
3.49444511E-001	-1.17141107E+002	
3.70157817E-001	-1.17176332E+002	
3.90871122E-001	-1.17250766E+002	
4.11584427E-001	-1.17227668E+002	
4.32297733E-001	-1.17210086E+002	
4.53011038E-001	-1.17202853E+002	
4.73724343E-001	-1.17222107E+002	
4.94437649E-001	-1.17208970E+002	
5.15150954E-001	-1.17248118E+002	
5.35864259E-001	-1.17252506E+002	
5.56577565E-001	-1.17295070E+002	
5.77290870E-001	-1.17250225E+002	
5.98004175E-001	-1.17229178E+002	
6.18717481E-001	-1.17278241E+002	
6.39430786E-001	-1.17286430E+002	
6.60144091E-001	-1.17268720E+002	
6.80857396E-001	-1.17304734E+002	
7.01570702E-001	-1.17332905E+002	
7.22284007E-001	-1.17335005E+002	
7.42997312E-001	-1.17308832E+002	
7.63710618E-001	-1.17308869E+002	
7.84423923E-001	-1.17282073E+002	
8.05137228E-001	-1.17258101E+002	
8.25850534E-001	-1.17232099E+002	
8.46563839E-001	-1.17203162E+002	
8.67277144E-001	-1.17181638E+002	
8.87990450E-001	-1.17169180E+002	
9.08703755E-001	-1.17266478E+002	
9.29417060E-001	-1.17320740E+002	
9.50130366E-001	-1.17347236E+002	
9.70843671E-001	-1.17303551E+002	
9.91556976E-001	-1.17298349E+002	
1.01227028E+000	-1.17326306E+002	
1.03298359E+000	-1.17327712E+002	
1.05369689E+000	-1.17297951E+002	
1.07441020E+000	-1.17312652E+002	
1.09512350E+000	-1.17324775E+002	
1.11583681E+000	-1.17384992E+002	
1.13655011E+000	-1.17391147E+002	
1.15726342E+000	-1.17390698E+002	
1.17797672E+000	-1.17358402E+002	
1.19869003E+000	-1.17401198E+002	
1.21940333E+000	-1.17384863E+002	
1.24011664E+000	-1.17394518E+002	
1.26082995E+000	-1.17388377E+002	
1.28154325E+000	-1.17397074E+002	
1.30225656E+000	-1.17407769E+002	
1.32296986E+000	-1.17405520E+002	
1.34368317E+000	-1.17430866E+002	
1.36439647E+000	-1.17495535E+002	
1.38510978E+000	-1.17505572E+002	
1.40582308E+000	-1.17437398E+002	
1.42653639E+000	-1.17438661E+002	
1.44724969E+000	-1.17422494E+002	
1.46796300E+000	-1.17433227E+002	
1.48867630E+000	-1.17458252E+002	
1.50938961E+000	-1.17437402E+002	
1.53010291E+000	-1.17430355E+002	
1.55081622E+000	-1.17413340E+002	
1.57152953E+000	-1.17410236E+002	
