Acquired on 4/26/2021 at 16:11:28
Calibrated on 4/26/2021 at 14:40:00
Device Descriptor:  [none]
Scan Range (nm):  1539.624  --  1560.517
Measurement Type:  Reflection
Group Index:  1.500
Gain:  24 dB
Domain:  Time
Spatial Resolution (mm):  50.000000
Frequency domain window was applied to measurement data.
Number of Data Points (in this file):  16384
NOTE: Data stored in this file is decimated by a factor of 64.

Time (ns)	Amplitude (dB)	
-1.00072081E+001	-1.20261198E+002	
-9.98649484E+000	-1.19924662E+002	
-9.96578154E+000	-1.19596870E+002	
-9.94506823E+000	-1.19338725E+002	
-9.92435493E+000	-1.19107008E+002	
-9.90364162E+000	-1.18868929E+002	
-9.88292832E+000	-1.18649356E+002	
-9.86221501E+000	-1.18433779E+002	
-9.84150171E+000	-1.18247093E+002	
-9.82078840E+000	-1.18070871E+002	
-9.80007509E+000	-1.17868992E+002	
-9.77936179E+000	-1.17680327E+002	
-9.75864848E+000	-1.17628661E+002	
-9.73793518E+000	-1.17657337E+002	
-9.71722187E+000	-1.17657244E+002	
-9.69650857E+000	-1.17661974E+002	
-9.67579526E+000	-1.17723336E+002	
-9.65508196E+000	-1.17701535E+002	
-9.63436865E+000	-1.17641507E+002	
-9.61365535E+000	-1.17637636E+002	
-9.59294204E+000	-1.17647066E+002	
-9.57222874E+000	-1.17686731E+002	
-9.55151543E+000	-1.17711910E+002	
-9.53080213E+000	-1.17699961E+002	
-9.51008882E+000	-1.17733051E+002	
-9.48937552E+000	-1.17754314E+002	
-9.46866221E+000	-1.17740826E+002	
-9.44794890E+000	-1.17711873E+002	
-9.42723560E+000	-1.17666812E+002	
-9.40652229E+000	-1.17657250E+002	
-9.38580899E+000	-1.17634710E+002	
-9.36509568E+000	-1.17631407E+002	
-9.34438238E+000	-1.17581398E+002	
-9.32366907E+000	-1.17552521E+002	
-9.30295577E+000	-1.17553807E+002	
-9.28224246E+000	-1.17560486E+002	
-9.26152916E+000	-1.17512571E+002	
-9.24081585E+000	-1.17454267E+002	
-9.22010255E+000	-1.17437312E+002	
-9.19938924E+000	-1.17469083E+002	
-9.17867594E+000	-1.17445978E+002	
-9.15796263E+000	-1.17440443E+002	
-9.13724932E+000	-1.17503747E+002	
-9.11653602E+000	-1.17511015E+002	
-9.09582271E+000	-1.17491944E+002	
-9.07510941E+000	-1.17485598E+002	
-9.05439610E+000	-1.17476345E+002	
-9.03368280E+000	-1.17359114E+002	
-9.01296949E+000	-1.17344404E+002	
-8.99225619E+000	-1.17351219E+002	
-8.97154288E+000	-1.17398522E+002	
-8.95082958E+000	-1.17417168E+002	
-8.93011627E+000	-1.17443032E+002	
-8.90940297E+000	-1.17474366E+002	
-8.88868966E+000	-1.17495215E+002	
-8.86797636E+000	-1.17480633E+002	
-8.84726305E+000	-1.17493203E+002	
-8.82654974E+000	-1.17467849E+002	
-8.80583644E+000	-1.17487723E+002	
-8.78512313E+000	-1.17482280E+002	
-8.76440983E+000	-1.17485034E+002	
-8.74369652E+000	-1.17544598E+002	
-8.72298322E+000	-1.17562981E+002	
-8.70226991E+000	-1.17500539E+002	
-8.68155661E+000	-1.17475196E+002	
-8.66084330E+000	-1.17503574E+002	
-8.64013000E+000	-1.17461755E+002	
-8.61941669E+000	-1.17422714E+002	
-8.59870339E+000	-1.17449098E+002	
-8.57799008E+000	-1.17447774E+002	
-8.55727678E+000	-1.17419981E+002	
-8.53656347E+000	-1.17534190E+002	
-8.51585017E+000	-1.17546317E+002	
-8.49513686E+000	-1.17543852E+002	
-8.47442355E+000	-1.17528358E+002	
-8.45371025E+000	-1.17541557E+002	
-8.43299694E+000	-1.17569126E+002	
-8.41228364E+000	-1.17535821E+002	
-8.39157033E+000	-1.17517513E+002	
-8.37085703E+000	-1.17559271E+002	
-8.35014372E+000	-1.17573323E+002	
-8.32943042E+000	-1.17601611E+002	
-8.30871711E+000	-1.17550736E+002	
-8.28800381E+000	-1.17588058E+002	
-8.26729050E+000	-1.17587704E+002	
-8.24657720E+000	-1.17579425E+002	
-8.22586389E+000	-1.17562160E+002	
-8.20515059E+000	-1.17613607E+002	
-8.18443728E+000	-1.17615815E+002	
-8.16372397E+000	-1.17604667E+002	
-8.14301067E+000	-1.17574482E+002	
-8.12229736E+000	-1.17579300E+002	
-8.10158406E+000	-1.17581858E+002	
-8.08087075E+000	-1.17584057E+002	
-8.06015745E+000	-1.17562093E+002	
-8.03944414E+000	-1.17506300E+002	
-8.01873084E+000	-1.17525321E+002	
-7.99801753E+000	-1.17517026E+002	
-7.97730423E+000	-1.17514499E+002	
-7.95659092E+000	-1.17488713E+002	
-7.93587762E+000	-1.17507345E+002	
-7.91516431E+000	-1.17535332E+002	
-7.89445101E+000	-1.17532045E+002	
-7.87373770E+000	-1.17512599E+002	
-7.85302439E+000	-1.17503823E+002	
-7.83231109E+000	-1.17477820E+002	
-7.81159778E+000	-1.17523092E+002	
-7.79088448E+000	-1.17543624E+002	
-7.77017117E+000	-1.17564230E+002	
-7.74945787E+000	-1.17574707E+002	
-7.72874456E+000	-1.17591946E+002	
-7.70803126E+000	-1.17552920E+002	
-7.68731795E+000	-1.17588533E+002	
-7.66660465E+000	-1.17579233E+002	
-7.64589134E+000	-1.17580426E+002	
-7.62517804E+000	-1.17590048E+002	
-7.60446473E+000	-1.17514700E+002	
-7.58375143E+000	-1.17528477E+002	
-7.56303812E+000	-1.17559706E+002	
-7.54232482E+000	-1.17630926E+002	
-7.52161151E+000	-1.17617425E+002	
-7.50089820E+000	-1.17636017E+002	
-7.48018490E+000	-1.17620818E+002	
-7.45947159E+000	-1.17665438E+002	
-7.43875829E+000	-1.17593963E+002	
-7.41804498E+000	-1.17519575E+002	
-7.39733168E+000	-1.17555748E+002	
-7.37661837E+000	-1.17555251E+002	
-7.35590507E+000	-1.17563853E+002	
-7.33519176E+000	-1.17599313E+002	
-7.31447846E+000	-1.17628847E+002	
-7.29376515E+000	-1.17612494E+002	
-7.27305185E+000	-1.17585708E+002	
-7.25233854E+000	-1.17621306E+002	
-7.23162524E+000	-1.17625775E+002	
-7.21091193E+000	-1.17614506E+002	
-7.19019862E+000	-1.17603197E+002	
-7.16948532E+000	-1.17649187E+002	
-7.14877201E+000	-1.17715556E+002	
-7.12805871E+000	-1.17757409E+002	
-7.10734540E+000	-1.17832502E+002	
-7.08663210E+000	-1.17867135E+002	
-7.06591879E+000	-1.17840601E+002	
-7.04520549E+000	-1.17828613E+002	
-7.02449218E+000	-1.17810505E+002	
-7.00377888E+000	-1.17778882E+002	
-6.98306557E+000	-1.17805549E+002	
-6.96235227E+000	-1.17778157E+002	
-6.94163896E+000	-1.17817329E+002	
-6.92092566E+000	-1.17878634E+002	
-6.90021235E+000	-1.17885423E+002	
-6.87949904E+000	-1.17869008E+002	
-6.85878574E+000	-1.17856044E+002	
-6.83807243E+000	-1.17876785E+002	
-6.81735913E+000	-1.17887132E+002	
-6.79664582E+000	-1.17844800E+002	
-6.77593252E+000	-1.17873149E+002	
-6.75521921E+000	-1.17814783E+002	
-6.73450591E+000	-1.17802613E+002	
-6.71379260E+000	-1.17782920E+002	
-6.69307930E+000	-1.17776114E+002	
-6.67236599E+000	-1.17731253E+002	
-6.65165269E+000	-1.17714193E+002	
-6.63093938E+000	-1.17719436E+002	
-6.61022608E+000	-1.17734306E+002	
-6.58951277E+000	-1.17730546E+002	
-6.56879947E+000	-1.17717529E+002	
-6.54808616E+000	-1.17687103E+002	
-6.52737285E+000	-1.17671633E+002	
-6.50665955E+000	-1.17710051E+002	
-6.48594624E+000	-1.17748198E+002	
-6.46523294E+000	-1.17777615E+002	
-6.44451963E+000	-1.17709200E+002	
-6.42380633E+000	-1.17668974E+002	
-6.40309302E+000	-1.17653794E+002	
-6.38237972E+000	-1.17623184E+002	
-6.36166641E+000	-1.17613021E+002	
-6.34095311E+000	-1.17616934E+002	
-6.32023980E+000	-1.17605806E+002	
-6.29952650E+000	-1.17616158E+002	
-6.27881319E+000	-1.17584307E+002	
-6.25809989E+000	-1.17606519E+002	
-6.23738658E+000	-1.17605930E+002	
-6.21667327E+000	-1.17595782E+002	
-6.19595997E+000	-1.17612208E+002	
-6.17524666E+000	-1.17604464E+002	
-6.15453336E+000	-1.17607888E+002	
-6.13382005E+000	-1.17589712E+002	
-6.11310675E+000	-1.17592148E+002	
-6.09239344E+000	-1.17592815E+002	
-6.07168014E+000	-1.17555291E+002	
-6.05096683E+000	-1.17626877E+002	
-6.03025353E+000	-1.17630270E+002	
-6.00954022E+000	-1.17592351E+002	
-5.98882692E+000	-1.17545798E+002	
-5.96811361E+000	-1.17549296E+002	
-5.94740031E+000	-1.17587138E+002	
-5.92668700E+000	-1.17628672E+002	
-5.90597369E+000	-1.17636912E+002	
-5.88526039E+000	-1.17679696E+002	
-5.86454708E+000	-1.17713512E+002	
-5.84383378E+000	-1.17683232E+002	
-5.82312047E+000	-1.17694115E+002	
-5.80240717E+000	-1.17669052E+002	
-5.78169386E+000	-1.17686315E+002	
-5.76098056E+000	-1.17690164E+002	
-5.74026725E+000	-1.17684719E+002	
-5.71955395E+000	-1.17716738E+002	
-5.69884064E+000	-1.17723577E+002	
-5.67812734E+000	-1.17747636E+002	
-5.65741403E+000	-1.17736449E+002	
-5.63670073E+000	-1.17743369E+002	
-5.61598742E+000	-1.17725246E+002	
-5.59527412E+000	-1.17680120E+002	
-5.57456081E+000	-1.17739062E+002	
-5.55384750E+000	-1.17670982E+002	
-5.53313420E+000	-1.17599094E+002	
-5.51242089E+000	-1.17620510E+002	
-5.49170759E+000	-1.17626229E+002	
-5.47099428E+000	-1.17605121E+002	
-5.45028098E+000	-1.17655533E+002	
-5.42956767E+000	-1.17698110E+002	
-5.40885437E+000	-1.17684864E+002	
-5.38814106E+000	-1.17677777E+002	
-5.36742776E+000	-1.17643489E+002	
-5.34671445E+000	-1.17674246E+002	
-5.32600115E+000	-1.17685182E+002	
-5.30528784E+000	-1.17704464E+002	
-5.28457454E+000	-1.17683622E+002	
-5.26386123E+000	-1.17655668E+002	
-5.24314792E+000	-1.17596824E+002	
-5.22243462E+000	-1.17572863E+002	
-5.20172131E+000	-1.17566878E+002	
-5.18100801E+000	-1.17532190E+002	
-5.16029470E+000	-1.17533177E+002	
-5.13958140E+000	-1.17489976E+002	
-5.11886809E+000	-1.17465286E+002	
-5.09815479E+000	-1.17470778E+002	
-5.07744148E+000	-1.17439885E+002	
-5.05672818E+000	-1.17510003E+002	
-5.03601487E+000	-1.17543168E+002	
-5.01530157E+000	-1.17581000E+002	
-4.99458826E+000	-1.17580273E+002	
-4.97387496E+000	-1.17529615E+002	
-4.95316165E+000	-1.17528522E+002	
-4.93244834E+000	-1.17487324E+002	
-4.91173504E+000	-1.17477693E+002	
-4.89102173E+000	-1.17470901E+002	
-4.87030843E+000	-1.17500859E+002	
-4.84959512E+000	-1.17484677E+002	
-4.82888182E+000	-1.17443274E+002	
-4.80816851E+000	-1.17426609E+002	
-4.78745521E+000	-1.17433164E+002	
-4.76674190E+000	-1.17463669E+002	
-4.74602860E+000	-1.17484427E+002	
-4.72531529E+000	-1.17543474E+002	
-4.70460199E+000	-1.17537908E+002	
-4.68388868E+000	-1.17576701E+002	
-4.66317538E+000	-1.17561043E+002	
-4.64246207E+000	-1.17612615E+002	
-4.62174877E+000	-1.17658279E+002	
-4.60103546E+000	-1.17688285E+002	
-4.58032215E+000	-1.17704812E+002	
-4.55960885E+000	-1.17664501E+002	
-4.53889554E+000	-1.17696627E+002	
-4.51818224E+000	-1.17624049E+002	
-4.49746893E+000	-1.17584709E+002	
-4.47675563E+000	-1.17633162E+002	
-4.45604232E+000	-1.17620375E+002	
-4.43532902E+000	-1.17623091E+002	
-4.41461571E+000	-1.17618826E+002	
-4.39390241E+000	-1.17628430E+002	
-4.37318910E+000	-1.17640072E+002	
-4.35247580E+000	-1.17624629E+002	
-4.33176249E+000	-1.17618385E+002	
-4.31104919E+000	-1.17617717E+002	
-4.29033588E+000	-1.17610772E+002	
-4.26962257E+000	-1.17599106E+002	
-4.24890927E+000	-1.17639981E+002	
-4.22819596E+000	-1.17636926E+002	
-4.20748266E+000	-1.17666093E+002	
-4.18676935E+000	-1.17626277E+002	
-4.16605605E+000	-1.17636706E+002	
-4.14534274E+000	-1.17641587E+002	
-4.12462944E+000	-1.17600863E+002	
-4.10391613E+000	-1.17597455E+002	
-4.08320283E+000	-1.17589579E+002	
-4.06248952E+000	-1.17578534E+002	
-4.04177622E+000	-1.17533690E+002	
-4.02106291E+000	-1.17569006E+002	
-4.00034961E+000	-1.17570959E+002	
-3.97963630E+000	-1.17527119E+002	
-3.95892299E+000	-1.17529587E+002	
-3.93820969E+000	-1.17499813E+002	
-3.91749638E+000	-1.17511694E+002	
-3.89678308E+000	-1.17484634E+002	
-3.87606977E+000	-1.17426910E+002	
-3.85535647E+000	-1.17430240E+002	
-3.83464316E+000	-1.17419763E+002	
-3.81392986E+000	-1.17418418E+002	
-3.79321655E+000	-1.17447116E+002	
-3.77250325E+000	-1.17401273E+002	
-3.75178994E+000	-1.17420406E+002	
-3.73107664E+000	-1.17423491E+002	
-3.71036333E+000	-1.17363387E+002	
-3.68965003E+000	-1.17376328E+002	
-3.66893672E+000	-1.17428112E+002	
-3.64822342E+000	-1.17395778E+002	
-3.62751011E+000	-1.17412935E+002	
-3.60679680E+000	-1.17411683E+002	
-3.58608350E+000	-1.17411819E+002	
-3.56537019E+000	-1.17440881E+002	
-3.54465689E+000	-1.17446666E+002	
-3.52394358E+000	-1.17469494E+002	
-3.50323028E+000	-1.17511758E+002	
-3.48251697E+000	-1.17547202E+002	
-3.46180367E+000	-1.17588658E+002	
-3.44109036E+000	-1.17609747E+002	
-3.42037706E+000	-1.17638966E+002	
-3.39966375E+000	-1.17686161E+002	
-3.37895045E+000	-1.17733736E+002	
-3.35823714E+000	-1.17729348E+002	
-3.33752384E+000	-1.17738074E+002	
-3.31681053E+000	-1.17735160E+002	
-3.29609722E+000	-1.17709963E+002	
-3.27538392E+000	-1.17727560E+002	
-3.25467061E+000	-1.17738713E+002	
-3.23395731E+000	-1.17738953E+002	
-3.21324400E+000	-1.17770487E+002	
-3.19253070E+000	-1.17778684E+002	
-3.17181739E+000	-1.17738814E+002	
-3.15110409E+000	-1.17723817E+002	
-3.13039078E+000	-1.17720208E+002	
-3.10967748E+000	-1.17766701E+002	
-3.08896417E+000	-1.17747914E+002	
-3.06825087E+000	-1.17733458E+002	
-3.04753756E+000	-1.17760275E+002	
-3.02682426E+000	-1.17738317E+002	
-3.00611095E+000	-1.17663768E+002	
-2.98539764E+000	-1.17711286E+002	
-2.96468434E+000	-1.17672844E+002	
-2.94397103E+000	-1.17647562E+002	
-2.92325773E+000	-1.17605052E+002	
-2.90254442E+000	-1.17591984E+002	
-2.88183112E+000	-1.17605336E+002	
-2.86111781E+000	-1.17649138E+002	
-2.84040451E+000	-1.17686702E+002	
-2.81969120E+000	-1.17721279E+002	
-2.79897790E+000	-1.17793743E+002	
-2.77826459E+000	-1.17766679E+002	
-2.75755129E+000	-1.17735004E+002	
-2.73683798E+000	-1.17742805E+002	
-2.71612468E+000	-1.17690213E+002	
-2.69541137E+000	-1.17679304E+002	
-2.67469807E+000	-1.17748720E+002	
-2.65398476E+000	-1.17776931E+002	
-2.63327145E+000	-1.17772684E+002	
-2.61255815E+000	-1.17712582E+002	
-2.59184484E+000	-1.17713468E+002	
-2.57113154E+000	-1.17705725E+002	
-2.55041823E+000	-1.17699227E+002	
-2.52970493E+000	-1.17750617E+002	
-2.50899162E+000	-1.17821427E+002	
-2.48827832E+000	-1.17812190E+002	
-2.46756501E+000	-1.17818177E+002	
-2.44685171E+000	-1.17816578E+002	
-2.42613840E+000	-1.17843724E+002	
-2.40542510E+000	-1.17857508E+002	
-2.38471179E+000	-1.17845883E+002	
-2.36399849E+000	-1.17828617E+002	
-2.34328518E+000	-1.17781517E+002	
-2.32257187E+000	-1.17742579E+002	
-2.30185857E+000	-1.17674090E+002	
-2.28114526E+000	-1.17680620E+002	
-2.26043196E+000	-1.17752847E+002	
-2.23971865E+000	-1.17730974E+002	
-2.21900535E+000	-1.17784744E+002	
-2.19829204E+000	-1.17811795E+002	
-2.17757874E+000	-1.17769952E+002	
-2.15686543E+000	-1.17754684E+002	
-2.13615213E+000	-1.17796895E+002	
-2.11543882E+000	-1.17808375E+002	
-2.09472552E+000	-1.17837870E+002	
-2.07401221E+000	-1.17817750E+002	
-2.05329891E+000	-1.17770044E+002	
-2.03258560E+000	-1.17783535E+002	
-2.01187229E+000	-1.17780749E+002	
-1.99115899E+000	-1.17770512E+002	
-1.97044568E+000	-1.17705269E+002	
-1.94973238E+000	-1.17719012E+002	
-1.92901907E+000	-1.17695898E+002	
-1.90830577E+000	-1.17652118E+002	
-1.88759246E+000	-1.17644631E+002	
-1.86687916E+000	-1.17664398E+002	
-1.84616585E+000	-1.17629996E+002	
-1.82545255E+000	-1.17700862E+002	
-1.80473924E+000	-1.17701146E+002	
-1.78402594E+000	-1.17731168E+002	
-1.76331263E+000	-1.17732326E+002	
-1.74259933E+000	-1.17697931E+002	
-1.72188602E+000	-1.17693218E+002	
-1.70117272E+000	-1.17755228E+002	
-1.68045941E+000	-1.17773043E+002	
-1.65974610E+000	-1.17718916E+002	
-1.63903280E+000	-1.17685653E+002	
-1.61831949E+000	-1.17734357E+002	
-1.59760619E+000	-1.17738640E+002	
-1.57689288E+000	-1.17747538E+002	
-1.55617958E+000	-1.17808300E+002	
-1.53546627E+000	-1.17797445E+002	
-1.51475297E+000	-1.17798403E+002	
-1.49403966E+000	-1.17768066E+002	
-1.47332636E+000	-1.17804763E+002	
-1.45261305E+000	-1.17772196E+002	
-1.43189975E+000	-1.17773191E+002	
-1.41118644E+000	-1.17761183E+002	
-1.39047314E+000	-1.17774971E+002	
-1.36975983E+000	-1.17742772E+002	
-1.34904652E+000	-1.17744612E+002	
-1.32833322E+000	-1.17696109E+002	
-1.30761991E+000	-1.17662223E+002	
-1.28690661E+000	-1.17666388E+002	
-1.26619330E+000	-1.17653490E+002	
-1.24548000E+000	-1.17692510E+002	
-1.22476669E+000	-1.17726550E+002	
-1.20405339E+000	-1.17628256E+002	
-1.18334008E+000	-1.17624932E+002	
-1.16262678E+000	-1.17696672E+002	
-1.14191347E+000	-1.17714911E+002	
-1.12120017E+000	-1.17706981E+002	
-1.10048686E+000	-1.17679142E+002	
-1.07977356E+000	-1.17684829E+002	
-1.05906025E+000	-1.17709422E+002	
-1.03834694E+000	-1.17689148E+002	
-1.01763364E+000	-1.17636498E+002	
-9.96920334E-001	-1.17594075E+002	
-9.76207029E-001	-1.17574096E+002	
-9.55493724E-001	-1.17583542E+002	
-9.34780418E-001	-1.17605790E+002	
-9.14067113E-001	-1.17666222E+002	
-8.93353808E-001	-1.17663368E+002	
-8.72640502E-001	-1.17644555E+002	
-8.51927197E-001	-1.17687637E+002	
-8.31213892E-001	-1.17718165E+002	
-8.10500586E-001	-1.17766317E+002	
-7.89787281E-001	-1.17780481E+002	
-7.69073976E-001	-1.17796522E+002	
-7.48360671E-001	-1.17781048E+002	
-7.27647365E-001	-1.17763682E+002	
-7.06934060E-001	-1.17801288E+002	
-6.86220755E-001	-1.17821000E+002	
-6.65507449E-001	-1.17845538E+002	
-6.44794144E-001	-1.17844374E+002	
-6.24080839E-001	-1.17811186E+002	
-6.03367533E-001	-1.17798771E+002	
-5.82654228E-001	-1.17776246E+002	
-5.61940923E-001	-1.17726525E+002	
-5.41227617E-001	-1.17691114E+002	
-5.20514312E-001	-1.17709596E+002	
-4.99801007E-001	-1.17780502E+002	
-4.79087701E-001	-1.17851248E+002	
-4.58374396E-001	-1.17880520E+002	
-4.37661091E-001	-1.17845418E+002	
-4.16947785E-001	-1.17800036E+002	
-3.96234480E-001	-1.17787109E+002	
-3.75521175E-001	-1.17800138E+002	
-3.54807869E-001	-1.17800679E+002	
-3.34094564E-001	-1.17804185E+002	
-3.13381259E-001	-1.17831647E+002	
-2.92667954E-001	-1.17829574E+002	
-2.71954648E-001	-1.17790377E+002	
-2.51241343E-001	-1.13505213E+002	
-2.30528038E-001	-1.13246536E+002	
-2.09814732E-001	-1.13240771E+002	
-1.89101427E-001	-1.13209533E+002	
-1.68388122E-001	-1.13169827E+002	
-1.47674816E-001	-1.13155746E+002	
-1.26961511E-001	-1.13152055E+002	
-1.06248206E-001	-1.13113997E+002	
-8.55349003E-002	-1.13102408E+002	
-6.48215950E-002	-1.13095065E+002	
-4.41082897E-002	-1.13104068E+002	
-2.33949844E-002	-1.13094492E+002	
-2.68167905E-003	-1.13089199E+002	
1.80316263E-002	-1.13055070E+002	
3.87449316E-002	-1.13038828E+002	
5.94582369E-002	-1.13041361E+002	
8.01715422E-002	-1.13052676E+002	
1.00884848E-001	-1.13049228E+002	
1.21598153E-001	-1.13020056E+002	
1.42311458E-001	-1.13006488E+002	
1.63024763E-001	-1.13002583E+002	
1.83738069E-001	-1.12982077E+002	
2.04451374E-001	-1.12954785E+002	
2.25164679E-001	-1.12962311E+002	
2.45877985E-001	-1.15675794E+002	
2.66591290E-001	-1.17034707E+002	
2.87304595E-001	-1.17036777E+002	
3.08017901E-001	-1.17087314E+002	
3.28731206E-001	-1.17136707E+002	
3.49444511E-001	-1.17145530E+002	
3.70157817E-001	-1.17181960E+002	
3.90871122E-001	-1.17260442E+002	
4.11584427E-001	-1.17237577E+002	
4.32297733E-001	-1.17221021E+002	
4.53011038E-001	-1.17208528E+002	
4.73724343E-001	-1.17225795E+002	
4.94437649E-001	-1.17216711E+002	
5.15150954E-001	-1.17253965E+002	
5.35864259E-001	-1.17256755E+002	
5.56577565E-001	-1.17292731E+002	
5.77290870E-001	-1.17244527E+002	
5.98004175E-001	-1.17225715E+002	
6.18717481E-001	-1.17275462E+002	
6.39430786E-001	-1.17284118E+002	
6.60144091E-001	-1.17264907E+002	
6.80857396E-001	-1.17297132E+002	
7.01570702E-001	-1.17325794E+002	
7.22284007E-001	-1.17325417E+002	
7.42997312E-001	-1.17298282E+002	
7.63710618E-001	-1.17293699E+002	
7.84423923E-001	-1.17264166E+002	
8.05137228E-001	-1.17244009E+002	
8.25850534E-001	-1.17227981E+002	
8.46563839E-001	-1.17201700E+002	
8.67277144E-001	-1.17179573E+002	
8.87990450E-001	-1.17162624E+002	
9.08703755E-001	-1.17260501E+002	
9.29417060E-001	-1.17314334E+002	
9.50130366E-001	-1.17342976E+002	
9.70843671E-001	-1.17294462E+002	
9.91556976E-001	-1.17283511E+002	
1.01227028E+000	-1.17309742E+002	
1.03298359E+000	-1.17304992E+002	
1.05369689E+000	-1.17270287E+002	
1.07441020E+000	-1.17288230E+002	
1.09512350E+000	-1.17294033E+002	
1.11583681E+000	-1.17344257E+002	
1.13655011E+000	-1.17347198E+002	
1.15726342E+000	-1.17346267E+002	
1.17797672E+000	-1.17318294E+002	
1.19869003E+000	-1.17360992E+002	
1.21940333E+000	-1.17344999E+002	
1.24011664E+000	-1.17360834E+002	
1.26082995E+000	-1.17358024E+002	
1.28154325E+000	-1.17369597E+002	
1.30225656E+000	-1.17381721E+002	
1.32296986E+000	-1.17372812E+002	
1.34368317E+000	-1.17397104E+002	
1.36439647E+000	-1.17463174E+002	
1.38510978E+000	-1.17468914E+002	
1.40582308E+000	-1.17399982E+002	
1.42653639E+000	-1.17399075E+002	
1.44724969E+000	-1.17389997E+002	
1.46796300E+000	-1.17403973E+002	
1.48867630E+000	-1.17434471E+002	
1.50938961E+000	-1.17415384E+002	
1.53010291E+000	-1.17412556E+002	
1.55081622E+000	-1.17400439E+002	
1.57152953E+000	-1.17401545E+002	
