Acquired on 4/26/2021 at 15:56:06
Calibrated on 4/26/2021 at 14:40:00
Device Descriptor:  [none]
Scan Range (nm):  1539.624  --  1560.517
Measurement Type:  Reflection
Group Index:  1.500
Gain:  24 dB
Domain:  Time
Spatial Resolution (mm):  50.000000
Frequency domain window was applied to measurement data.
Number of Data Points (in this file):  16384
NOTE: Data stored in this file is decimated by a factor of 64.

Time (ns)	Amplitude (dB)	
-1.00072081E+001	-1.20270999E+002	
-9.98649484E+000	-1.19933951E+002	
-9.96578154E+000	-1.19613223E+002	
-9.94506823E+000	-1.19355210E+002	
-9.92435493E+000	-1.19130510E+002	
-9.90364162E+000	-1.18896012E+002	
-9.88292832E+000	-1.18682145E+002	
-9.86221501E+000	-1.18471321E+002	
-9.84150171E+000	-1.18283036E+002	
-9.82078840E+000	-1.18107020E+002	
-9.80007509E+000	-1.17906011E+002	
-9.77936179E+000	-1.17714955E+002	
-9.75864848E+000	-1.17666238E+002	
-9.73793518E+000	-1.17699615E+002	
-9.71722187E+000	-1.17690261E+002	
-9.69650857E+000	-1.17694974E+002	
-9.67579526E+000	-1.17763443E+002	
-9.65508196E+000	-1.17740418E+002	
-9.63436865E+000	-1.17679643E+002	
-9.61365535E+000	-1.17678144E+002	
-9.59294204E+000	-1.17690244E+002	
-9.57222874E+000	-1.17731032E+002	
-9.55151543E+000	-1.17763678E+002	
-9.53080213E+000	-1.17745734E+002	
-9.51008882E+000	-1.17774218E+002	
-9.48937552E+000	-1.17798438E+002	
-9.46866221E+000	-1.17780742E+002	
-9.44794890E+000	-1.17756421E+002	
-9.42723560E+000	-1.17704464E+002	
-9.40652229E+000	-1.17691706E+002	
-9.38580899E+000	-1.17657955E+002	
-9.36509568E+000	-1.17643386E+002	
-9.34438238E+000	-1.17593621E+002	
-9.32366907E+000	-1.17563244E+002	
-9.30295577E+000	-1.17564475E+002	
-9.28224246E+000	-1.17575031E+002	
-9.26152916E+000	-1.17526096E+002	
-9.24081585E+000	-1.17462759E+002	
-9.22010255E+000	-1.17445354E+002	
-9.19938924E+000	-1.17478831E+002	
-9.17867594E+000	-1.17452575E+002	
-9.15796263E+000	-1.17448672E+002	
-9.13724932E+000	-1.17511919E+002	
-9.11653602E+000	-1.17520580E+002	
-9.09582271E+000	-1.17495280E+002	
-9.07510941E+000	-1.17485541E+002	
-9.05439610E+000	-1.17471111E+002	
-9.03368280E+000	-1.17354950E+002	
-9.01296949E+000	-1.17342747E+002	
-8.99225619E+000	-1.17346389E+002	
-8.97154288E+000	-1.17395499E+002	
-8.95082958E+000	-1.17410902E+002	
-8.93011627E+000	-1.17431851E+002	
-8.90940297E+000	-1.17459474E+002	
-8.88868966E+000	-1.17479719E+002	
-8.86797636E+000	-1.17471741E+002	
-8.84726305E+000	-1.17483715E+002	
-8.82654974E+000	-1.17471106E+002	
-8.80583644E+000	-1.17488630E+002	
-8.78512313E+000	-1.17481746E+002	
-8.76440983E+000	-1.17482261E+002	
-8.74369652E+000	-1.17541613E+002	
-8.72298322E+000	-1.17563524E+002	
-8.70226991E+000	-1.17495658E+002	
-8.68155661E+000	-1.17473714E+002	
-8.66084330E+000	-1.17499230E+002	
-8.64013000E+000	-1.17455048E+002	
-8.61941669E+000	-1.17409087E+002	
-8.59870339E+000	-1.17431694E+002	
-8.57799008E+000	-1.17433167E+002	
-8.55727678E+000	-1.17412461E+002	
-8.53656347E+000	-1.17533699E+002	
-8.51585017E+000	-1.17551634E+002	
-8.49513686E+000	-1.17551422E+002	
-8.47442355E+000	-1.17536729E+002	
-8.45371025E+000	-1.17549661E+002	
-8.43299694E+000	-1.17580512E+002	
-8.41228364E+000	-1.17548360E+002	
-8.39157033E+000	-1.17536736E+002	
-8.37085703E+000	-1.17582815E+002	
-8.35014372E+000	-1.17598502E+002	
-8.32943042E+000	-1.17626281E+002	
-8.30871711E+000	-1.17574949E+002	
-8.28800381E+000	-1.17607680E+002	
-8.26729050E+000	-1.17608439E+002	
-8.24657720E+000	-1.17598551E+002	
-8.22586389E+000	-1.17574519E+002	
-8.20515059E+000	-1.17628302E+002	
-8.18443728E+000	-1.17627157E+002	
-8.16372397E+000	-1.17612933E+002	
-8.14301067E+000	-1.17586682E+002	
-8.12229736E+000	-1.17599853E+002	
-8.10158406E+000	-1.17609753E+002	
-8.08087075E+000	-1.17611646E+002	
-8.06015745E+000	-1.17583562E+002	
-8.03944414E+000	-1.17521177E+002	
-8.01873084E+000	-1.17533941E+002	
-7.99801753E+000	-1.17524345E+002	
-7.97730423E+000	-1.17518327E+002	
-7.95659092E+000	-1.17495522E+002	
-7.93587762E+000	-1.17516085E+002	
-7.91516431E+000	-1.17547144E+002	
-7.89445101E+000	-1.17540682E+002	
-7.87373770E+000	-1.17514892E+002	
-7.85302439E+000	-1.17511807E+002	
-7.83231109E+000	-1.17487360E+002	
-7.81159778E+000	-1.17532395E+002	
-7.79088448E+000	-1.17552973E+002	
-7.77017117E+000	-1.17566206E+002	
-7.74945787E+000	-1.17579370E+002	
-7.72874456E+000	-1.17599283E+002	
-7.70803126E+000	-1.17559834E+002	
-7.68731795E+000	-1.17593770E+002	
-7.66660465E+000	-1.17590169E+002	
-7.64589134E+000	-1.17594011E+002	
-7.62517804E+000	-1.17592995E+002	
-7.60446473E+000	-1.17515607E+002	
-7.58375143E+000	-1.17527573E+002	
-7.56303812E+000	-1.17563439E+002	
-7.54232482E+000	-1.17634523E+002	
-7.52161151E+000	-1.17620897E+002	
-7.50089820E+000	-1.17633624E+002	
-7.48018490E+000	-1.17622126E+002	
-7.45947159E+000	-1.17667280E+002	
-7.43875829E+000	-1.17595196E+002	
-7.41804498E+000	-1.17521066E+002	
-7.39733168E+000	-1.17560291E+002	
-7.37661837E+000	-1.17566207E+002	
-7.35590507E+000	-1.17573670E+002	
-7.33519176E+000	-1.17597949E+002	
-7.31447846E+000	-1.17622880E+002	
-7.29376515E+000	-1.17610872E+002	
-7.27305185E+000	-1.17588684E+002	
-7.25233854E+000	-1.17617749E+002	
-7.23162524E+000	-1.17616893E+002	
-7.21091193E+000	-1.17610818E+002	
-7.19019862E+000	-1.17603590E+002	
-7.16948532E+000	-1.17648437E+002	
-7.14877201E+000	-1.17717769E+002	
-7.12805871E+000	-1.17767981E+002	
-7.10734540E+000	-1.17844292E+002	
-7.08663210E+000	-1.17885393E+002	
-7.06591879E+000	-1.17856525E+002	
-7.04520549E+000	-1.17848132E+002	
-7.02449218E+000	-1.17827827E+002	
-7.00377888E+000	-1.17795985E+002	
-6.98306557E+000	-1.17821594E+002	
-6.96235227E+000	-1.17785081E+002	
-6.94163896E+000	-1.17821117E+002	
-6.92092566E+000	-1.17881347E+002	
-6.90021235E+000	-1.17886174E+002	
-6.87949904E+000	-1.17862495E+002	
-6.85878574E+000	-1.17845885E+002	
-6.83807243E+000	-1.17865792E+002	
-6.81735913E+000	-1.17877374E+002	
-6.79664582E+000	-1.17828636E+002	
-6.77593252E+000	-1.17855013E+002	
-6.75521921E+000	-1.17801126E+002	
-6.73450591E+000	-1.17797378E+002	
-6.71379260E+000	-1.17774498E+002	
-6.69307930E+000	-1.17766140E+002	
-6.67236599E+000	-1.17729966E+002	
-6.65165269E+000	-1.17706555E+002	
-6.63093938E+000	-1.17701830E+002	
-6.61022608E+000	-1.17714377E+002	
-6.58951277E+000	-1.17709266E+002	
-6.56879947E+000	-1.17700418E+002	
-6.54808616E+000	-1.17671051E+002	
-6.52737285E+000	-1.17657621E+002	
-6.50665955E+000	-1.17695201E+002	
-6.48594624E+000	-1.17735415E+002	
-6.46523294E+000	-1.17769390E+002	
-6.44451963E+000	-1.17699685E+002	
-6.42380633E+000	-1.17652008E+002	
-6.40309302E+000	-1.17639284E+002	
-6.38237972E+000	-1.17612364E+002	
-6.36166641E+000	-1.17614501E+002	
-6.34095311E+000	-1.17614311E+002	
-6.32023980E+000	-1.17606847E+002	
-6.29952650E+000	-1.17621056E+002	
-6.27881319E+000	-1.17596090E+002	
-6.25809989E+000	-1.17614351E+002	
-6.23738658E+000	-1.17607457E+002	
-6.21667327E+000	-1.17591377E+002	
-6.19595997E+000	-1.17602547E+002	
-6.17524666E+000	-1.17585066E+002	
-6.15453336E+000	-1.17588628E+002	
-6.13382005E+000	-1.17575878E+002	
-6.11310675E+000	-1.17581734E+002	
-6.09239344E+000	-1.17576683E+002	
-6.07168014E+000	-1.17535737E+002	
-6.05096683E+000	-1.17605233E+002	
-6.03025353E+000	-1.17611891E+002	
-6.00954022E+000	-1.17587600E+002	
-5.98882692E+000	-1.17535594E+002	
-5.96811361E+000	-1.17537486E+002	
-5.94740031E+000	-1.17586565E+002	
-5.92668700E+000	-1.17634009E+002	
-5.90597369E+000	-1.17646277E+002	
-5.88526039E+000	-1.17691291E+002	
-5.86454708E+000	-1.17705955E+002	
-5.84383378E+000	-1.17669181E+002	
-5.82312047E+000	-1.17675971E+002	
-5.80240717E+000	-1.17642821E+002	
-5.78169386E+000	-1.17656327E+002	
-5.76098056E+000	-1.17661513E+002	
-5.74026725E+000	-1.17654710E+002	
-5.71955395E+000	-1.17686766E+002	
-5.69884064E+000	-1.17687614E+002	
-5.67812734E+000	-1.17716945E+002	
-5.65741403E+000	-1.17705227E+002	
-5.63670073E+000	-1.17713491E+002	
-5.61598742E+000	-1.17694313E+002	
-5.59527412E+000	-1.17651516E+002	
-5.57456081E+000	-1.17707672E+002	
-5.55384750E+000	-1.17629993E+002	
-5.53313420E+000	-1.17557279E+002	
-5.51242089E+000	-1.17570155E+002	
-5.49170759E+000	-1.17569325E+002	
-5.47099428E+000	-1.17552824E+002	
-5.45028098E+000	-1.17594012E+002	
-5.42956767E+000	-1.17636670E+002	
-5.40885437E+000	-1.17618976E+002	
-5.38814106E+000	-1.17618051E+002	
-5.36742776E+000	-1.17603639E+002	
-5.34671445E+000	-1.17639265E+002	
-5.32600115E+000	-1.17646003E+002	
-5.30528784E+000	-1.17664467E+002	
-5.28457454E+000	-1.17645626E+002	
-5.26386123E+000	-1.17621196E+002	
-5.24314792E+000	-1.17571146E+002	
-5.22243462E+000	-1.17557157E+002	
-5.20172131E+000	-1.17558720E+002	
-5.18100801E+000	-1.17521871E+002	
-5.16029470E+000	-1.17520564E+002	
-5.13958140E+000	-1.17472512E+002	
-5.11886809E+000	-1.17445700E+002	
-5.09815479E+000	-1.17458436E+002	
-5.07744148E+000	-1.17426617E+002	
-5.05672818E+000	-1.17496361E+002	
-5.03601487E+000	-1.17523480E+002	
-5.01530157E+000	-1.17566129E+002	
-4.99458826E+000	-1.17581242E+002	
-4.97387496E+000	-1.17525376E+002	
-4.95316165E+000	-1.17522633E+002	
-4.93244834E+000	-1.17479368E+002	
-4.91173504E+000	-1.17465419E+002	
-4.89102173E+000	-1.17452815E+002	
-4.87030843E+000	-1.17472211E+002	
-4.84959512E+000	-1.17459333E+002	
-4.82888182E+000	-1.17422386E+002	
-4.80816851E+000	-1.17412379E+002	
-4.78745521E+000	-1.17419478E+002	
-4.76674190E+000	-1.17454469E+002	
-4.74602860E+000	-1.17476119E+002	
-4.72531529E+000	-1.17528748E+002	
-4.70460199E+000	-1.17522274E+002	
-4.68388868E+000	-1.17561824E+002	
-4.66317538E+000	-1.17545295E+002	
-4.64246207E+000	-1.17597804E+002	
-4.62174877E+000	-1.17647424E+002	
-4.60103546E+000	-1.17671399E+002	
-4.58032215E+000	-1.17689496E+002	
-4.55960885E+000	-1.17653017E+002	
-4.53889554E+000	-1.17691597E+002	
-4.51818224E+000	-1.17619218E+002	
-4.49746893E+000	-1.17570329E+002	
-4.47675563E+000	-1.17623156E+002	
-4.45604232E+000	-1.17611636E+002	
-4.43532902E+000	-1.17615996E+002	
-4.41461571E+000	-1.17617087E+002	
-4.39390241E+000	-1.17630252E+002	
-4.37318910E+000	-1.17642359E+002	
-4.35247580E+000	-1.17624777E+002	
-4.33176249E+000	-1.17617822E+002	
-4.31104919E+000	-1.17615975E+002	
-4.29033588E+000	-1.17616397E+002	
-4.26962257E+000	-1.17606656E+002	
-4.24890927E+000	-1.17642399E+002	
-4.22819596E+000	-1.17643091E+002	
-4.20748266E+000	-1.17674145E+002	
-4.18676935E+000	-1.17636178E+002	
-4.16605605E+000	-1.17646610E+002	
-4.14534274E+000	-1.17654832E+002	
-4.12462944E+000	-1.17607684E+002	
-4.10391613E+000	-1.17616226E+002	
-4.08320283E+000	-1.17609982E+002	
-4.06248952E+000	-1.17609705E+002	
-4.04177622E+000	-1.17559891E+002	
-4.02106291E+000	-1.17594115E+002	
-4.00034961E+000	-1.17592695E+002	
-3.97963630E+000	-1.17552167E+002	
-3.95892299E+000	-1.17551907E+002	
-3.93820969E+000	-1.17520203E+002	
-3.91749638E+000	-1.17533189E+002	
-3.89678308E+000	-1.17503116E+002	
-3.87606977E+000	-1.17442122E+002	
-3.85535647E+000	-1.17443156E+002	
-3.83464316E+000	-1.17431148E+002	
-3.81392986E+000	-1.17429566E+002	
-3.79321655E+000	-1.17456196E+002	
-3.77250325E+000	-1.17411397E+002	
-3.75178994E+000	-1.17426828E+002	
-3.73107664E+000	-1.17431030E+002	
-3.71036333E+000	-1.17375512E+002	
-3.68965003E+000	-1.17391350E+002	
-3.66893672E+000	-1.17440116E+002	
-3.64822342E+000	-1.17404776E+002	
-3.62751011E+000	-1.17431051E+002	
-3.60679680E+000	-1.17427822E+002	
-3.58608350E+000	-1.17431138E+002	
-3.56537019E+000	-1.17451241E+002	
-3.54465689E+000	-1.17455871E+002	
-3.52394358E+000	-1.17480732E+002	
-3.50323028E+000	-1.17525658E+002	
-3.48251697E+000	-1.17555384E+002	
-3.46180367E+000	-1.17592243E+002	
-3.44109036E+000	-1.17609940E+002	
-3.42037706E+000	-1.17639642E+002	
-3.39966375E+000	-1.17688235E+002	
-3.37895045E+000	-1.17731611E+002	
-3.35823714E+000	-1.17725563E+002	
-3.33752384E+000	-1.17735887E+002	
-3.31681053E+000	-1.17733049E+002	
-3.29609722E+000	-1.17706623E+002	
-3.27538392E+000	-1.17717208E+002	
-3.25467061E+000	-1.17730826E+002	
-3.23395731E+000	-1.17724227E+002	
-3.21324400E+000	-1.17743653E+002	
-3.19253070E+000	-1.17744857E+002	
-3.17181739E+000	-1.17708737E+002	
-3.15110409E+000	-1.17697032E+002	
-3.13039078E+000	-1.17689775E+002	
-3.10967748E+000	-1.17726803E+002	
-3.08896417E+000	-1.17704730E+002	
-3.06825087E+000	-1.17687289E+002	
-3.04753756E+000	-1.17726447E+002	
-3.02682426E+000	-1.17702439E+002	
-3.00611095E+000	-1.17631950E+002	
-2.98539764E+000	-1.17686027E+002	
-2.96468434E+000	-1.17653461E+002	
-2.94397103E+000	-1.17638412E+002	
-2.92325773E+000	-1.17597784E+002	
-2.90254442E+000	-1.17581754E+002	
-2.88183112E+000	-1.17597771E+002	
-2.86111781E+000	-1.17644330E+002	
-2.84040451E+000	-1.17682719E+002	
-2.81969120E+000	-1.17718787E+002	
-2.79897790E+000	-1.17788473E+002	
-2.77826459E+000	-1.17754909E+002	
-2.75755129E+000	-1.17721802E+002	
-2.73683798E+000	-1.17735993E+002	
-2.71612468E+000	-1.17688572E+002	
-2.69541137E+000	-1.17680428E+002	
-2.67469807E+000	-1.17747572E+002	
-2.65398476E+000	-1.17775972E+002	
-2.63327145E+000	-1.17767031E+002	
-2.61255815E+000	-1.17711388E+002	
-2.59184484E+000	-1.17718291E+002	
-2.57113154E+000	-1.17719989E+002	
-2.55041823E+000	-1.17704999E+002	
-2.52970493E+000	-1.17757887E+002	
-2.50899162E+000	-1.17829280E+002	
-2.48827832E+000	-1.17811174E+002	
-2.46756501E+000	-1.17818074E+002	
-2.44685171E+000	-1.17812508E+002	
-2.42613840E+000	-1.17836023E+002	
-2.40542510E+000	-1.17847447E+002	
-2.38471179E+000	-1.17834447E+002	
-2.36399849E+000	-1.17818267E+002	
-2.34328518E+000	-1.17768003E+002	
-2.32257187E+000	-1.17726801E+002	
-2.30185857E+000	-1.17656806E+002	
-2.28114526E+000	-1.17670749E+002	
-2.26043196E+000	-1.17743734E+002	
-2.23971865E+000	-1.17723642E+002	
-2.21900535E+000	-1.17784033E+002	
-2.19829204E+000	-1.17813100E+002	
-2.17757874E+000	-1.17774872E+002	
-2.15686543E+000	-1.17751260E+002	
-2.13615213E+000	-1.17797742E+002	
-2.11543882E+000	-1.17810690E+002	
-2.09472552E+000	-1.17828314E+002	
-2.07401221E+000	-1.17803441E+002	
-2.05329891E+000	-1.17758202E+002	
-2.03258560E+000	-1.17770104E+002	
-2.01187229E+000	-1.17762872E+002	
-1.99115899E+000	-1.17761185E+002	
-1.97044568E+000	-1.17701544E+002	
-1.94973238E+000	-1.17713780E+002	
-1.92901907E+000	-1.17694311E+002	
-1.90830577E+000	-1.17657310E+002	
-1.88759246E+000	-1.17651740E+002	
-1.86687916E+000	-1.17668166E+002	
-1.84616585E+000	-1.17637504E+002	
-1.82545255E+000	-1.17713779E+002	
-1.80473924E+000	-1.17713322E+002	
-1.78402594E+000	-1.17745419E+002	
-1.76331263E+000	-1.17750561E+002	
-1.74259933E+000	-1.17716428E+002	
-1.72188602E+000	-1.17701459E+002	
-1.70117272E+000	-1.17759500E+002	
-1.68045941E+000	-1.17778075E+002	
-1.65974610E+000	-1.17732269E+002	
-1.63903280E+000	-1.17702979E+002	
-1.61831949E+000	-1.17746133E+002	
-1.59760619E+000	-1.17753920E+002	
-1.57689288E+000	-1.17760208E+002	
-1.55617958E+000	-1.17821409E+002	
-1.53546627E+000	-1.17807384E+002	
-1.51475297E+000	-1.17801440E+002	
-1.49403966E+000	-1.17762175E+002	
-1.47332636E+000	-1.17788913E+002	
-1.45261305E+000	-1.17755393E+002	
-1.43189975E+000	-1.17751986E+002	
-1.41118644E+000	-1.17733119E+002	
-1.39047314E+000	-1.17750200E+002	
-1.36975983E+000	-1.17722228E+002	
-1.34904652E+000	-1.17726837E+002	
-1.32833322E+000	-1.17678493E+002	
-1.30761991E+000	-1.17644535E+002	
-1.28690661E+000	-1.17644274E+002	
-1.26619330E+000	-1.17622974E+002	
-1.24548000E+000	-1.17652528E+002	
-1.22476669E+000	-1.17690901E+002	
-1.20405339E+000	-1.17592586E+002	
-1.18334008E+000	-1.17589075E+002	
-1.16262678E+000	-1.17655695E+002	
-1.14191347E+000	-1.17671888E+002	
-1.12120017E+000	-1.17660689E+002	
-1.10048686E+000	-1.17634128E+002	
-1.07977356E+000	-1.17641462E+002	
-1.05906025E+000	-1.17667114E+002	
-1.03834694E+000	-1.17646313E+002	
-1.01763364E+000	-1.17595470E+002	
-9.96920334E-001	-1.17556760E+002	
-9.76207029E-001	-1.17543770E+002	
-9.55493724E-001	-1.17559607E+002	
-9.34780418E-001	-1.17584473E+002	
-9.14067113E-001	-1.17649012E+002	
-8.93353808E-001	-1.17641774E+002	
-8.72640502E-001	-1.17618183E+002	
-8.51927197E-001	-1.17650447E+002	
-8.31213892E-001	-1.17681678E+002	
-8.10500586E-001	-1.17732085E+002	
-7.89787281E-001	-1.17753163E+002	
-7.69073976E-001	-1.17770286E+002	
-7.48360671E-001	-1.17757497E+002	
-7.27647365E-001	-1.17747147E+002	
-7.06934060E-001	-1.17788311E+002	
-6.86220755E-001	-1.17808314E+002	
-6.65507449E-001	-1.17838576E+002	
-6.44794144E-001	-1.17846244E+002	
-6.24080839E-001	-1.17822470E+002	
-6.03367533E-001	-1.17816555E+002	
-5.82654228E-001	-1.17795516E+002	
-5.61940923E-001	-1.17742637E+002	
-5.41227617E-001	-1.17707939E+002	
-5.20514312E-001	-1.17725683E+002	
-4.99801007E-001	-1.17799329E+002	
-4.79087701E-001	-1.17854357E+002	
-4.58374396E-001	-1.17877005E+002	
-4.37661091E-001	-1.17842396E+002	
-4.16947785E-001	-1.17793114E+002	
-3.96234480E-001	-1.17783289E+002	
-3.75521175E-001	-1.17803056E+002	
-3.54807869E-001	-1.17809773E+002	
-3.34094564E-001	-1.17813891E+002	
-3.13381259E-001	-1.17844388E+002	
-2.92667954E-001	-1.17846134E+002	
-2.71954648E-001	-1.17812817E+002	
-2.51241343E-001	-1.13262476E+002	
-2.30528038E-001	-1.12990118E+002	
-2.09814732E-001	-1.12983513E+002	
-1.89101427E-001	-1.12954650E+002	
-1.68388122E-001	-1.12915756E+002	
-1.47674816E-001	-1.12899696E+002	
-1.26961511E-001	-1.12893699E+002	
-1.06248206E-001	-1.12857513E+002	
-8.55349003E-002	-1.12846037E+002	
-6.48215950E-002	-1.12840450E+002	
-4.41082897E-002	-1.12847615E+002	
-2.33949844E-002	-1.12838196E+002	
-2.68167905E-003	-1.12832519E+002	
1.80316263E-002	-1.12802388E+002	
3.87449316E-002	-1.12786880E+002	
5.94582369E-002	-1.12788711E+002	
8.01715422E-002	-1.12799984E+002	
1.00884848E-001	-1.12797361E+002	
1.21598153E-001	-1.12766789E+002	
1.42311458E-001	-1.12752852E+002	
1.63024763E-001	-1.12745772E+002	
1.83738069E-001	-1.12724151E+002	
2.04451374E-001	-1.12696733E+002	
2.25164679E-001	-1.12701330E+002	
2.45877985E-001	-1.15530445E+002	
2.66591290E-001	-1.16995223E+002	
2.87304595E-001	-1.16996868E+002	
3.08017901E-001	-1.17048179E+002	
3.28731206E-001	-1.17099160E+002	
3.49444511E-001	-1.17103216E+002	
3.70157817E-001	-1.17140890E+002	
3.90871122E-001	-1.17216706E+002	
4.11584427E-001	-1.17193041E+002	
4.32297733E-001	-1.17174559E+002	
4.53011038E-001	-1.17167897E+002	
4.73724343E-001	-1.17185213E+002	
4.94437649E-001	-1.17179096E+002	
5.15150954E-001	-1.17216886E+002	
5.35864259E-001	-1.17226168E+002	
5.56577565E-001	-1.17263078E+002	
5.77290870E-001	-1.17212102E+002	
5.98004175E-001	-1.17182908E+002	
6.18717481E-001	-1.17235962E+002	
6.39430786E-001	-1.17248756E+002	
6.60144091E-001	-1.17236057E+002	
6.80857396E-001	-1.17276347E+002	
7.01570702E-001	-1.17303888E+002	
7.22284007E-001	-1.17307842E+002	
7.42997312E-001	-1.17288666E+002	
7.63710618E-001	-1.17289966E+002	
7.84423923E-001	-1.17263124E+002	
8.05137228E-001	-1.17247766E+002	
8.25850534E-001	-1.17229280E+002	
8.46563839E-001	-1.17202952E+002	
8.67277144E-001	-1.17180470E+002	
8.87990450E-001	-1.17166278E+002	
9.08703755E-001	-1.17264141E+002	
9.29417060E-001	-1.17316788E+002	
9.50130366E-001	-1.17345043E+002	
9.70843671E-001	-1.17304616E+002	
9.91556976E-001	-1.17291091E+002	
1.01227028E+000	-1.17322259E+002	
1.03298359E+000	-1.17319053E+002	
1.05369689E+000	-1.17293898E+002	
1.07441020E+000	-1.17313694E+002	
1.09512350E+000	-1.17330204E+002	
1.11583681E+000	-1.17386271E+002	
1.13655011E+000	-1.17389359E+002	
1.15726342E+000	-1.17385908E+002	
1.17797672E+000	-1.17352179E+002	
1.19869003E+000	-1.17396047E+002	
1.21940333E+000	-1.17377398E+002	
1.24011664E+000	-1.17388863E+002	
1.26082995E+000	-1.17380922E+002	
1.28154325E+000	-1.17386284E+002	
1.30225656E+000	-1.17382713E+002	
1.32296986E+000	-1.17375263E+002	
1.34368317E+000	-1.17405928E+002	
1.36439647E+000	-1.17473955E+002	
1.38510978E+000	-1.17481688E+002	
1.40582308E+000	-1.17410831E+002	
1.42653639E+000	-1.17412764E+002	
1.44724969E+000	-1.17402488E+002	
1.46796300E+000	-1.17410744E+002	
1.48867630E+000	-1.17440545E+002	
1.50938961E+000	-1.17420110E+002	
1.53010291E+000	-1.17417388E+002	
1.55081622E+000	-1.17397079E+002	
1.57152953E+000	-1.17392833E+002	
