Acquired on 4/26/2021 at 17:15:27
Calibrated on 4/26/2021 at 14:40:00
Device Descriptor:  [none]
Scan Range (nm):  1539.624  --  1560.517
Measurement Type:  Reflection
Group Index:  1.500
Gain:  24 dB
Domain:  Time
Spatial Resolution (mm):  50.000000
Frequency domain window was applied to measurement data.
Number of Data Points (in this file):  16384
NOTE: Data stored in this file is decimated by a factor of 64.

Time (ns)	Amplitude (dB)	
-1.00072081E+001	-1.20260475E+002	
-9.98649484E+000	-1.19926653E+002	
-9.96578154E+000	-1.19595591E+002	
-9.94506823E+000	-1.19338545E+002	
-9.92435493E+000	-1.19106236E+002	
-9.90364162E+000	-1.18877151E+002	
-9.88292832E+000	-1.18665285E+002	
-9.86221501E+000	-1.18441891E+002	
-9.84150171E+000	-1.18248800E+002	
-9.82078840E+000	-1.18067651E+002	
-9.80007509E+000	-1.17860441E+002	
-9.77936179E+000	-1.17672378E+002	
-9.75864848E+000	-1.17621895E+002	
-9.73793518E+000	-1.17655749E+002	
-9.71722187E+000	-1.17652752E+002	
-9.69650857E+000	-1.17655652E+002	
-9.67579526E+000	-1.17718707E+002	
-9.65508196E+000	-1.17697262E+002	
-9.63436865E+000	-1.17639424E+002	
-9.61365535E+000	-1.17639226E+002	
-9.59294204E+000	-1.17658858E+002	
-9.57222874E+000	-1.17694016E+002	
-9.55151543E+000	-1.17718332E+002	
-9.53080213E+000	-1.17699638E+002	
-9.51008882E+000	-1.17731148E+002	
-9.48937552E+000	-1.17753818E+002	
-9.46866221E+000	-1.17740263E+002	
-9.44794890E+000	-1.17712058E+002	
-9.42723560E+000	-1.17661609E+002	
-9.40652229E+000	-1.17644700E+002	
-9.38580899E+000	-1.17610354E+002	
-9.36509568E+000	-1.17606931E+002	
-9.34438238E+000	-1.17560730E+002	
-9.32366907E+000	-1.17531733E+002	
-9.30295577E+000	-1.17536600E+002	
-9.28224246E+000	-1.17544134E+002	
-9.26152916E+000	-1.17489631E+002	
-9.24081585E+000	-1.17421993E+002	
-9.22010255E+000	-1.17405087E+002	
-9.19938924E+000	-1.17440941E+002	
-9.17867594E+000	-1.17417996E+002	
-9.15796263E+000	-1.17412301E+002	
-9.13724932E+000	-1.17476368E+002	
-9.11653602E+000	-1.17483153E+002	
-9.09582271E+000	-1.17462168E+002	
-9.07510941E+000	-1.17460182E+002	
-9.05439610E+000	-1.17450575E+002	
-9.03368280E+000	-1.17333384E+002	
-9.01296949E+000	-1.17320159E+002	
-8.99225619E+000	-1.17321814E+002	
-8.97154288E+000	-1.17367233E+002	
-8.95082958E+000	-1.17382656E+002	
-8.93011627E+000	-1.17410208E+002	
-8.90940297E+000	-1.17436664E+002	
-8.88868966E+000	-1.17458005E+002	
-8.86797636E+000	-1.17444378E+002	
-8.84726305E+000	-1.17455979E+002	
-8.82654974E+000	-1.17441408E+002	
-8.80583644E+000	-1.17461870E+002	
-8.78512313E+000	-1.17452056E+002	
-8.76440983E+000	-1.17456985E+002	
-8.74369652E+000	-1.17520762E+002	
-8.72298322E+000	-1.17543102E+002	
-8.70226991E+000	-1.17478607E+002	
-8.68155661E+000	-1.17456342E+002	
-8.66084330E+000	-1.17485584E+002	
-8.64013000E+000	-1.17436258E+002	
-8.61941669E+000	-1.17387909E+002	
-8.59870339E+000	-1.17407178E+002	
-8.57799008E+000	-1.17399328E+002	
-8.55727678E+000	-1.17367745E+002	
-8.53656347E+000	-1.17482873E+002	
-8.51585017E+000	-1.17491218E+002	
-8.49513686E+000	-1.17489210E+002	
-8.47442355E+000	-1.17478488E+002	
-8.45371025E+000	-1.17496237E+002	
-8.43299694E+000	-1.17524391E+002	
-8.41228364E+000	-1.17492038E+002	
-8.39157033E+000	-1.17477433E+002	
-8.37085703E+000	-1.17522297E+002	
-8.35014372E+000	-1.17538545E+002	
-8.32943042E+000	-1.17564047E+002	
-8.30871711E+000	-1.17514020E+002	
-8.28800381E+000	-1.17551890E+002	
-8.26729050E+000	-1.17554729E+002	
-8.24657720E+000	-1.17542556E+002	
-8.22586389E+000	-1.17516578E+002	
-8.20515059E+000	-1.17565008E+002	
-8.18443728E+000	-1.17561347E+002	
-8.16372397E+000	-1.17545536E+002	
-8.14301067E+000	-1.17509874E+002	
-8.12229736E+000	-1.17527040E+002	
-8.10158406E+000	-1.17536877E+002	
-8.08087075E+000	-1.17535443E+002	
-8.06015745E+000	-1.17521444E+002	
-8.03944414E+000	-1.17471245E+002	
-8.01873084E+000	-1.17490977E+002	
-7.99801753E+000	-1.17484227E+002	
-7.97730423E+000	-1.17478140E+002	
-7.95659092E+000	-1.17453522E+002	
-7.93587762E+000	-1.17474497E+002	
-7.91516431E+000	-1.17516913E+002	
-7.89445101E+000	-1.17514877E+002	
-7.87373770E+000	-1.17497722E+002	
-7.85302439E+000	-1.17493972E+002	
-7.83231109E+000	-1.17470267E+002	
-7.81159778E+000	-1.17515762E+002	
-7.79088448E+000	-1.17537987E+002	
-7.77017117E+000	-1.17554875E+002	
-7.74945787E+000	-1.17566666E+002	
-7.72874456E+000	-1.17587405E+002	
-7.70803126E+000	-1.17550428E+002	
-7.68731795E+000	-1.17587616E+002	
-7.66660465E+000	-1.17588276E+002	
-7.64589134E+000	-1.17599847E+002	
-7.62517804E+000	-1.17597698E+002	
-7.60446473E+000	-1.17513207E+002	
-7.58375143E+000	-1.17533126E+002	
-7.56303812E+000	-1.17567404E+002	
-7.54232482E+000	-1.17629818E+002	
-7.52161151E+000	-1.17613738E+002	
-7.50089820E+000	-1.17631067E+002	
-7.48018490E+000	-1.17616763E+002	
-7.45947159E+000	-1.17658033E+002	
-7.43875829E+000	-1.17582926E+002	
-7.41804498E+000	-1.17501738E+002	
-7.39733168E+000	-1.17533834E+002	
-7.37661837E+000	-1.17528296E+002	
-7.35590507E+000	-1.17535050E+002	
-7.33519176E+000	-1.17562347E+002	
-7.31447846E+000	-1.17591032E+002	
-7.29376515E+000	-1.17574443E+002	
-7.27305185E+000	-1.17553084E+002	
-7.25233854E+000	-1.17585783E+002	
-7.23162524E+000	-1.17587934E+002	
-7.21091193E+000	-1.17577204E+002	
-7.19019862E+000	-1.17562446E+002	
-7.16948532E+000	-1.17605498E+002	
-7.14877201E+000	-1.17664517E+002	
-7.12805871E+000	-1.17711155E+002	
-7.10734540E+000	-1.17794315E+002	
-7.08663210E+000	-1.17832885E+002	
-7.06591879E+000	-1.17804605E+002	
-7.04520549E+000	-1.17794132E+002	
-7.02449218E+000	-1.17775962E+002	
-7.00377888E+000	-1.17746867E+002	
-6.98306557E+000	-1.17775459E+002	
-6.96235227E+000	-1.17739122E+002	
-6.94163896E+000	-1.17778699E+002	
-6.92092566E+000	-1.17836093E+002	
-6.90021235E+000	-1.17843436E+002	
-6.87949904E+000	-1.17826884E+002	
-6.85878574E+000	-1.17805280E+002	
-6.83807243E+000	-1.17827072E+002	
-6.81735913E+000	-1.17834182E+002	
-6.79664582E+000	-1.17787695E+002	
-6.77593252E+000	-1.17806724E+002	
-6.75521921E+000	-1.17750415E+002	
-6.73450591E+000	-1.17745535E+002	
-6.71379260E+000	-1.17729919E+002	
-6.69307930E+000	-1.17730468E+002	
-6.67236599E+000	-1.17689232E+002	
-6.65165269E+000	-1.17677587E+002	
-6.63093938E+000	-1.17688826E+002	
-6.61022608E+000	-1.17703484E+002	
-6.58951277E+000	-1.17699835E+002	
-6.56879947E+000	-1.17686099E+002	
-6.54808616E+000	-1.17654975E+002	
-6.52737285E+000	-1.17637189E+002	
-6.50665955E+000	-1.17674032E+002	
-6.48594624E+000	-1.17717035E+002	
-6.46523294E+000	-1.17752315E+002	
-6.44451963E+000	-1.17680164E+002	
-6.42380633E+000	-1.17638688E+002	
-6.40309302E+000	-1.17627188E+002	
-6.38237972E+000	-1.17602130E+002	
-6.36166641E+000	-1.17612035E+002	
-6.34095311E+000	-1.17614536E+002	
-6.32023980E+000	-1.17604728E+002	
-6.29952650E+000	-1.17616935E+002	
-6.27881319E+000	-1.17594251E+002	
-6.25809989E+000	-1.17616465E+002	
-6.23738658E+000	-1.17611212E+002	
-6.21667327E+000	-1.17591923E+002	
-6.19595997E+000	-1.17599207E+002	
-6.17524666E+000	-1.17580850E+002	
-6.15453336E+000	-1.17584991E+002	
-6.13382005E+000	-1.17565861E+002	
-6.11310675E+000	-1.17571743E+002	
-6.09239344E+000	-1.17563164E+002	
-6.07168014E+000	-1.17520446E+002	
-6.05096683E+000	-1.17593943E+002	
-6.03025353E+000	-1.17604783E+002	
-6.00954022E+000	-1.17572257E+002	
-5.98882692E+000	-1.17516823E+002	
-5.96811361E+000	-1.17523317E+002	
-5.94740031E+000	-1.17565968E+002	
-5.92668700E+000	-1.17614434E+002	
-5.90597369E+000	-1.17624657E+002	
-5.88526039E+000	-1.17677269E+002	
-5.86454708E+000	-1.17701798E+002	
-5.84383378E+000	-1.17662839E+002	
-5.82312047E+000	-1.17669337E+002	
-5.80240717E+000	-1.17641135E+002	
-5.78169386E+000	-1.17650070E+002	
-5.76098056E+000	-1.17645407E+002	
-5.74026725E+000	-1.17641861E+002	
-5.71955395E+000	-1.17682363E+002	
-5.69884064E+000	-1.17679849E+002	
-5.67812734E+000	-1.17703925E+002	
-5.65741403E+000	-1.17698449E+002	
-5.63670073E+000	-1.17707289E+002	
-5.61598742E+000	-1.17688805E+002	
-5.59527412E+000	-1.17650389E+002	
-5.57456081E+000	-1.17712286E+002	
-5.55384750E+000	-1.17638064E+002	
-5.53313420E+000	-1.17565319E+002	
-5.51242089E+000	-1.17579184E+002	
-5.49170759E+000	-1.17591541E+002	
-5.47099428E+000	-1.17574773E+002	
-5.45028098E+000	-1.17626465E+002	
-5.42956767E+000	-1.17667020E+002	
-5.40885437E+000	-1.17655288E+002	
-5.38814106E+000	-1.17638231E+002	
-5.36742776E+000	-1.17609579E+002	
-5.34671445E+000	-1.17645080E+002	
-5.32600115E+000	-1.17659111E+002	
-5.30528784E+000	-1.17680536E+002	
-5.28457454E+000	-1.17668676E+002	
-5.26386123E+000	-1.17660383E+002	
-5.24314792E+000	-1.17602984E+002	
-5.22243462E+000	-1.17576078E+002	
-5.20172131E+000	-1.17582030E+002	
-5.18100801E+000	-1.17563805E+002	
-5.16029470E+000	-1.17562867E+002	
-5.13958140E+000	-1.17518227E+002	
-5.11886809E+000	-1.17490254E+002	
-5.09815479E+000	-1.17498431E+002	
-5.07744148E+000	-1.17464739E+002	
-5.05672818E+000	-1.17534693E+002	
-5.03601487E+000	-1.17565762E+002	
-5.01530157E+000	-1.17610114E+002	
-4.99458826E+000	-1.17614414E+002	
-4.97387496E+000	-1.17552457E+002	
-4.95316165E+000	-1.17553682E+002	
-4.93244834E+000	-1.17506761E+002	
-4.91173504E+000	-1.17486435E+002	
-4.89102173E+000	-1.17478294E+002	
-4.87030843E+000	-1.17504097E+002	
-4.84959512E+000	-1.17488878E+002	
-4.82888182E+000	-1.17448609E+002	
-4.80816851E+000	-1.17433550E+002	
-4.78745521E+000	-1.17442904E+002	
-4.76674190E+000	-1.17464091E+002	
-4.74602860E+000	-1.17484773E+002	
-4.72531529E+000	-1.17537080E+002	
-4.70460199E+000	-1.17525650E+002	
-4.68388868E+000	-1.17555396E+002	
-4.66317538E+000	-1.17537392E+002	
-4.64246207E+000	-1.17588376E+002	
-4.62174877E+000	-1.17635889E+002	
-4.60103546E+000	-1.17662880E+002	
-4.58032215E+000	-1.17679219E+002	
-4.55960885E+000	-1.17643611E+002	
-4.53889554E+000	-1.17674180E+002	
-4.51818224E+000	-1.17596506E+002	
-4.49746893E+000	-1.17549441E+002	
-4.47675563E+000	-1.17597261E+002	
-4.45604232E+000	-1.17577984E+002	
-4.43532902E+000	-1.17582030E+002	
-4.41461571E+000	-1.17582710E+002	
-4.39390241E+000	-1.17596239E+002	
-4.37318910E+000	-1.17603027E+002	
-4.35247580E+000	-1.17585019E+002	
-4.33176249E+000	-1.17579705E+002	
-4.31104919E+000	-1.17574463E+002	
-4.29033588E+000	-1.17565232E+002	
-4.26962257E+000	-1.17556337E+002	
-4.24890927E+000	-1.17599593E+002	
-4.22819596E+000	-1.17606969E+002	
-4.20748266E+000	-1.17641023E+002	
-4.18676935E+000	-1.17603329E+002	
-4.16605605E+000	-1.17611846E+002	
-4.14534274E+000	-1.17615262E+002	
-4.12462944E+000	-1.17572540E+002	
-4.10391613E+000	-1.17572200E+002	
-4.08320283E+000	-1.17567906E+002	
-4.06248952E+000	-1.17564194E+002	
-4.04177622E+000	-1.17517525E+002	
-4.02106291E+000	-1.17552504E+002	
-4.00034961E+000	-1.17554371E+002	
-3.97963630E+000	-1.17512605E+002	
-3.95892299E+000	-1.17517885E+002	
-3.93820969E+000	-1.17489611E+002	
-3.91749638E+000	-1.17501387E+002	
-3.89678308E+000	-1.17472566E+002	
-3.87606977E+000	-1.17414806E+002	
-3.85535647E+000	-1.17421598E+002	
-3.83464316E+000	-1.17405719E+002	
-3.81392986E+000	-1.17404456E+002	
-3.79321655E+000	-1.17435944E+002	
-3.77250325E+000	-1.17390568E+002	
-3.75178994E+000	-1.17405696E+002	
-3.73107664E+000	-1.17404305E+002	
-3.71036333E+000	-1.17346777E+002	
-3.68965003E+000	-1.17362224E+002	
-3.66893672E+000	-1.17412082E+002	
-3.64822342E+000	-1.17378536E+002	
-3.62751011E+000	-1.17395257E+002	
-3.60679680E+000	-1.17392270E+002	
-3.58608350E+000	-1.17395639E+002	
-3.56537019E+000	-1.17416169E+002	
-3.54465689E+000	-1.17419980E+002	
-3.52394358E+000	-1.17450587E+002	
-3.50323028E+000	-1.17493232E+002	
-3.48251697E+000	-1.17530201E+002	
-3.46180367E+000	-1.17569185E+002	
-3.44109036E+000	-1.17589873E+002	
-3.42037706E+000	-1.17619606E+002	
-3.39966375E+000	-1.17661677E+002	
-3.37895045E+000	-1.17709383E+002	
-3.35823714E+000	-1.17702016E+002	
-3.33752384E+000	-1.17711679E+002	
-3.31681053E+000	-1.17716071E+002	
-3.29609722E+000	-1.17692081E+002	
-3.27538392E+000	-1.17706490E+002	
-3.25467061E+000	-1.17718177E+002	
-3.23395731E+000	-1.17719373E+002	
-3.21324400E+000	-1.17747702E+002	
-3.19253070E+000	-1.17755197E+002	
-3.17181739E+000	-1.17715676E+002	
-3.15110409E+000	-1.17697907E+002	
-3.13039078E+000	-1.17694484E+002	
-3.10967748E+000	-1.17735235E+002	
-3.08896417E+000	-1.17708907E+002	
-3.06825087E+000	-1.17696119E+002	
-3.04753756E+000	-1.17734997E+002	
-3.02682426E+000	-1.17708760E+002	
-3.00611095E+000	-1.17638820E+002	
-2.98539764E+000	-1.17684993E+002	
-2.96468434E+000	-1.17649120E+002	
-2.94397103E+000	-1.17627565E+002	
-2.92325773E+000	-1.17582311E+002	
-2.90254442E+000	-1.17570912E+002	
-2.88183112E+000	-1.17583745E+002	
-2.86111781E+000	-1.17628705E+002	
-2.84040451E+000	-1.17672390E+002	
-2.81969120E+000	-1.17710053E+002	
-2.79897790E+000	-1.17777873E+002	
-2.77826459E+000	-1.17746483E+002	
-2.75755129E+000	-1.17712170E+002	
-2.73683798E+000	-1.17719061E+002	
-2.71612468E+000	-1.17670688E+002	
-2.69541137E+000	-1.17653233E+002	
-2.67469807E+000	-1.17722673E+002	
-2.65398476E+000	-1.17751574E+002	
-2.63327145E+000	-1.17749405E+002	
-2.61255815E+000	-1.17693136E+002	
-2.59184484E+000	-1.17705274E+002	
-2.57113154E+000	-1.17699657E+002	
-2.55041823E+000	-1.17684979E+002	
-2.52970493E+000	-1.17739197E+002	
-2.50899162E+000	-1.17806348E+002	
-2.48827832E+000	-1.17794628E+002	
-2.46756501E+000	-1.17802098E+002	
-2.44685171E+000	-1.17802927E+002	
-2.42613840E+000	-1.17835994E+002	
-2.40542510E+000	-1.17856354E+002	
-2.38471179E+000	-1.17846752E+002	
-2.36399849E+000	-1.17831080E+002	
-2.34328518E+000	-1.17778109E+002	
-2.32257187E+000	-1.17735409E+002	
-2.30185857E+000	-1.17665878E+002	
-2.28114526E+000	-1.17679704E+002	
-2.26043196E+000	-1.17751832E+002	
-2.23971865E+000	-1.17731826E+002	
-2.21900535E+000	-1.17781827E+002	
-2.19829204E+000	-1.17814413E+002	
-2.17757874E+000	-1.17775078E+002	
-2.15686543E+000	-1.17756867E+002	
-2.13615213E+000	-1.17794505E+002	
-2.11543882E+000	-1.17804760E+002	
-2.09472552E+000	-1.17827603E+002	
-2.07401221E+000	-1.17804567E+002	
-2.05329891E+000	-1.17761582E+002	
-2.03258560E+000	-1.17777273E+002	
-2.01187229E+000	-1.17776384E+002	
-1.99115899E+000	-1.17772072E+002	
-1.97044568E+000	-1.17713304E+002	
-1.94973238E+000	-1.17725090E+002	
-1.92901907E+000	-1.17702650E+002	
-1.90830577E+000	-1.17654529E+002	
-1.88759246E+000	-1.17647777E+002	
-1.86687916E+000	-1.17664057E+002	
-1.84616585E+000	-1.17629172E+002	
-1.82545255E+000	-1.17699981E+002	
-1.80473924E+000	-1.17698753E+002	
-1.78402594E+000	-1.17730366E+002	
-1.76331263E+000	-1.17738373E+002	
-1.74259933E+000	-1.17704008E+002	
-1.72188602E+000	-1.17697516E+002	
-1.70117272E+000	-1.17758534E+002	
-1.68045941E+000	-1.17774487E+002	
-1.65974610E+000	-1.17730252E+002	
-1.63903280E+000	-1.17699030E+002	
-1.61831949E+000	-1.17746527E+002	
-1.59760619E+000	-1.17747992E+002	
-1.57689288E+000	-1.17762457E+002	
-1.55617958E+000	-1.17822926E+002	
-1.53546627E+000	-1.17805368E+002	
-1.51475297E+000	-1.17800337E+002	
-1.49403966E+000	-1.17765314E+002	
-1.47332636E+000	-1.17795641E+002	
-1.45261305E+000	-1.17757750E+002	
-1.43189975E+000	-1.17758790E+002	
-1.41118644E+000	-1.17743078E+002	
-1.39047314E+000	-1.17756879E+002	
-1.36975983E+000	-1.17730780E+002	
-1.34904652E+000	-1.17736657E+002	
-1.32833322E+000	-1.17694324E+002	
-1.30761991E+000	-1.17664159E+002	
-1.28690661E+000	-1.17665887E+002	
-1.26619330E+000	-1.17646337E+002	
-1.24548000E+000	-1.17683362E+002	
-1.22476669E+000	-1.17722376E+002	
-1.20405339E+000	-1.17618441E+002	
-1.18334008E+000	-1.17614332E+002	
-1.16262678E+000	-1.17678302E+002	
-1.14191347E+000	-1.17696150E+002	
-1.12120017E+000	-1.17690782E+002	
-1.10048686E+000	-1.17671894E+002	
-1.07977356E+000	-1.17677222E+002	
-1.05906025E+000	-1.17701319E+002	
-1.03834694E+000	-1.17683777E+002	
-1.01763364E+000	-1.17633172E+002	
-9.96920334E-001	-1.17584899E+002	
-9.76207029E-001	-1.17566478E+002	
-9.55493724E-001	-1.17582157E+002	
-9.34780418E-001	-1.17601646E+002	
-9.14067113E-001	-1.17667897E+002	
-8.93353808E-001	-1.17666835E+002	
-8.72640502E-001	-1.17646882E+002	
-8.51927197E-001	-1.17683810E+002	
-8.31213892E-001	-1.17714598E+002	
-8.10500586E-001	-1.17762812E+002	
-7.89787281E-001	-1.17780437E+002	
-7.69073976E-001	-1.17796530E+002	
-7.48360671E-001	-1.17782023E+002	
-7.27647365E-001	-1.17773504E+002	
-7.06934060E-001	-1.17813430E+002	
-6.86220755E-001	-1.17835722E+002	
-6.65507449E-001	-1.17861906E+002	
-6.44794144E-001	-1.17860369E+002	
-6.24080839E-001	-1.17821662E+002	
-6.03367533E-001	-1.17806657E+002	
-5.82654228E-001	-1.17777740E+002	
-5.61940923E-001	-1.17723138E+002	
-5.41227617E-001	-1.17686135E+002	
-5.20514312E-001	-1.17701348E+002	
-4.99801007E-001	-1.17780881E+002	
-4.79087701E-001	-1.17844388E+002	
-4.58374396E-001	-1.17865097E+002	
-4.37661091E-001	-1.17826315E+002	
-4.16947785E-001	-1.17775690E+002	
-3.96234480E-001	-1.17765125E+002	
-3.75521175E-001	-1.17781800E+002	
-3.54807869E-001	-1.17788908E+002	
-3.34094564E-001	-1.17795334E+002	
-3.13381259E-001	-1.17821065E+002	
-2.92667954E-001	-1.17814632E+002	
-2.71954648E-001	-1.17775821E+002	
-2.51241343E-001	-1.13191323E+002	
-2.30528038E-001	-1.12954694E+002	
-2.09814732E-001	-1.12947865E+002	
-1.89101427E-001	-1.12919178E+002	
-1.68388122E-001	-1.12880705E+002	
-1.47674816E-001	-1.12865863E+002	
-1.26961511E-001	-1.12864165E+002	
-1.06248206E-001	-1.12828828E+002	
-8.55349003E-002	-1.12818273E+002	
-6.48215950E-002	-1.12813281E+002	
-4.41082897E-002	-1.12822647E+002	
-2.33949844E-002	-1.12815462E+002	
-2.68167905E-003	-1.12809800E+002	
1.80316263E-002	-1.12777129E+002	
3.87449316E-002	-1.12760546E+002	
5.94582369E-002	-1.12765485E+002	
8.01715422E-002	-1.12777783E+002	
1.00884848E-001	-1.12773071E+002	
1.21598153E-001	-1.12743112E+002	
1.42311458E-001	-1.12729196E+002	
1.63024763E-001	-1.12722226E+002	
1.83738069E-001	-1.12701756E+002	
2.04451374E-001	-1.12677173E+002	
2.25164679E-001	-1.12684520E+002	
2.45877985E-001	-1.15592761E+002	
2.66591290E-001	-1.17004928E+002	
2.87304595E-001	-1.17008765E+002	
3.08017901E-001	-1.17061045E+002	
3.28731206E-001	-1.17113706E+002	
3.49444511E-001	-1.17130418E+002	
3.70157817E-001	-1.17169821E+002	
3.90871122E-001	-1.17243089E+002	
4.11584427E-001	-1.17217187E+002	
4.32297733E-001	-1.17196300E+002	
4.53011038E-001	-1.17184835E+002	
4.73724343E-001	-1.17195122E+002	
4.94437649E-001	-1.17188479E+002	
5.15150954E-001	-1.17230874E+002	
5.35864259E-001	-1.17241650E+002	
5.56577565E-001	-1.17279549E+002	
5.77290870E-001	-1.17224897E+002	
5.98004175E-001	-1.17199408E+002	
6.18717481E-001	-1.17249033E+002	
6.39430786E-001	-1.17254035E+002	
6.60144091E-001	-1.17238761E+002	
6.80857396E-001	-1.17275438E+002	
7.01570702E-001	-1.17301368E+002	
7.22284007E-001	-1.17300569E+002	
7.42997312E-001	-1.17273263E+002	
7.63710618E-001	-1.17273722E+002	
7.84423923E-001	-1.17243633E+002	
8.05137228E-001	-1.17223564E+002	
8.25850534E-001	-1.17201518E+002	
8.46563839E-001	-1.17171967E+002	
8.67277144E-001	-1.17145638E+002	
8.87990450E-001	-1.17131975E+002	
9.08703755E-001	-1.17225603E+002	
9.29417060E-001	-1.17277593E+002	
9.50130366E-001	-1.17303606E+002	
9.70843671E-001	-1.17268291E+002	
9.91556976E-001	-1.17253390E+002	
1.01227028E+000	-1.17279502E+002	
1.03298359E+000	-1.17271217E+002	
1.05369689E+000	-1.17240639E+002	
1.07441020E+000	-1.17259446E+002	
1.09512350E+000	-1.17275817E+002	
1.11583681E+000	-1.17333990E+002	
1.13655011E+000	-1.17340213E+002	
1.15726342E+000	-1.17343248E+002	
1.17797672E+000	-1.17312607E+002	
1.19869003E+000	-1.17360509E+002	
1.21940333E+000	-1.17340058E+002	
1.24011664E+000	-1.17352712E+002	
1.26082995E+000	-1.17346101E+002	
1.28154325E+000	-1.17352575E+002	
1.30225656E+000	-1.17359394E+002	
1.32296986E+000	-1.17356272E+002	
1.34368317E+000	-1.17387236E+002	
1.36439647E+000	-1.17452998E+002	
1.38510978E+000	-1.17466803E+002	
1.40582308E+000	-1.17402208E+002	
1.42653639E+000	-1.17408791E+002	
1.44724969E+000	-1.17400325E+002	
1.46796300E+000	-1.17406208E+002	
1.48867630E+000	-1.17438893E+002	
1.50938961E+000	-1.17424039E+002	
1.53010291E+000	-1.17428857E+002	
1.55081622E+000	-1.17413842E+002	
1.57152953E+000	-1.17411972E+002	
