Acquired on 4/26/2021 at 15:21:10
Calibrated on 4/26/2021 at 14:40:00
Device Descriptor:  [none]
Scan Range (nm):  1539.624  --  1560.517
Measurement Type:  Reflection
Group Index:  1.500
Gain:  24 dB
Domain:  Time
Spatial Resolution (mm):  50.000000
Frequency domain window was applied to measurement data.
Number of Data Points (in this file):  16384
NOTE: Data stored in this file is decimated by a factor of 64.

Time (ns)	Amplitude (dB)	
-1.00072081E+001	-1.20319461E+002	
-9.98649484E+000	-1.19989153E+002	
-9.96578154E+000	-1.19658702E+002	
-9.94506823E+000	-1.19405186E+002	
-9.92435493E+000	-1.19177282E+002	
-9.90364162E+000	-1.18942180E+002	
-9.88292832E+000	-1.18725826E+002	
-9.86221501E+000	-1.18509645E+002	
-9.84150171E+000	-1.18316692E+002	
-9.82078840E+000	-1.18133515E+002	
-9.80007509E+000	-1.17928636E+002	
-9.77936179E+000	-1.17742165E+002	
-9.75864848E+000	-1.17689418E+002	
-9.73793518E+000	-1.17718123E+002	
-9.71722187E+000	-1.17714458E+002	
-9.69650857E+000	-1.17718759E+002	
-9.67579526E+000	-1.17783085E+002	
-9.65508196E+000	-1.17761835E+002	
-9.63436865E+000	-1.17709240E+002	
-9.61365535E+000	-1.17708495E+002	
-9.59294204E+000	-1.17721095E+002	
-9.57222874E+000	-1.17761812E+002	
-9.55151543E+000	-1.17790577E+002	
-9.53080213E+000	-1.17772959E+002	
-9.51008882E+000	-1.17803901E+002	
-9.48937552E+000	-1.17824390E+002	
-9.46866221E+000	-1.17813068E+002	
-9.44794890E+000	-1.17787246E+002	
-9.42723560E+000	-1.17732495E+002	
-9.40652229E+000	-1.17717144E+002	
-9.38580899E+000	-1.17689586E+002	
-9.36509568E+000	-1.17680294E+002	
-9.34438238E+000	-1.17633640E+002	
-9.32366907E+000	-1.17610195E+002	
-9.30295577E+000	-1.17615334E+002	
-9.28224246E+000	-1.17617409E+002	
-9.26152916E+000	-1.17567923E+002	
-9.24081585E+000	-1.17505662E+002	
-9.22010255E+000	-1.17486320E+002	
-9.19938924E+000	-1.17518085E+002	
-9.17867594E+000	-1.17490525E+002	
-9.15796263E+000	-1.17479746E+002	
-9.13724932E+000	-1.17541550E+002	
-9.11653602E+000	-1.17547928E+002	
-9.09582271E+000	-1.17524761E+002	
-9.07510941E+000	-1.17517771E+002	
-9.05439610E+000	-1.17506199E+002	
-9.03368280E+000	-1.17391145E+002	
-9.01296949E+000	-1.17378649E+002	
-8.99225619E+000	-1.17381131E+002	
-8.97154288E+000	-1.17422630E+002	
-8.95082958E+000	-1.17433323E+002	
-8.93011627E+000	-1.17456497E+002	
-8.90940297E+000	-1.17485709E+002	
-8.88868966E+000	-1.17502892E+002	
-8.86797636E+000	-1.17492830E+002	
-8.84726305E+000	-1.17505955E+002	
-8.82654974E+000	-1.17488521E+002	
-8.80583644E+000	-1.17507720E+002	
-8.78512313E+000	-1.17504633E+002	
-8.76440983E+000	-1.17508702E+002	
-8.74369652E+000	-1.17570026E+002	
-8.72298322E+000	-1.17589958E+002	
-8.70226991E+000	-1.17526721E+002	
-8.68155661E+000	-1.17506410E+002	
-8.66084330E+000	-1.17533978E+002	
-8.64013000E+000	-1.17487895E+002	
-8.61941669E+000	-1.17440607E+002	
-8.59870339E+000	-1.17463948E+002	
-8.57799008E+000	-1.17462254E+002	
-8.55727678E+000	-1.17433522E+002	
-8.53656347E+000	-1.17544900E+002	
-8.51585017E+000	-1.17552040E+002	
-8.49513686E+000	-1.17546672E+002	
-8.47442355E+000	-1.17534370E+002	
-8.45371025E+000	-1.17553594E+002	
-8.43299694E+000	-1.17590696E+002	
-8.41228364E+000	-1.17561071E+002	
-8.39157033E+000	-1.17550255E+002	
-8.37085703E+000	-1.17594500E+002	
-8.35014372E+000	-1.17607134E+002	
-8.32943042E+000	-1.17630556E+002	
-8.30871711E+000	-1.17576482E+002	
-8.28800381E+000	-1.17606832E+002	
-8.26729050E+000	-1.17606209E+002	
-8.24657720E+000	-1.17596881E+002	
-8.22586389E+000	-1.17575875E+002	
-8.20515059E+000	-1.17626873E+002	
-8.18443728E+000	-1.17627526E+002	
-8.16372397E+000	-1.17612231E+002	
-8.14301067E+000	-1.17583919E+002	
-8.12229736E+000	-1.17598510E+002	
-8.10158406E+000	-1.17600923E+002	
-8.08087075E+000	-1.17605130E+002	
-8.06015745E+000	-1.17586243E+002	
-8.03944414E+000	-1.17535073E+002	
-8.01873084E+000	-1.17557994E+002	
-7.99801753E+000	-1.17556316E+002	
-7.97730423E+000	-1.17555581E+002	
-7.95659092E+000	-1.17524998E+002	
-7.93587762E+000	-1.17540083E+002	
-7.91516431E+000	-1.17571518E+002	
-7.89445101E+000	-1.17561885E+002	
-7.87373770E+000	-1.17537592E+002	
-7.85302439E+000	-1.17531685E+002	
-7.83231109E+000	-1.17508746E+002	
-7.81159778E+000	-1.17551697E+002	
-7.79088448E+000	-1.17577374E+002	
-7.77017117E+000	-1.17596007E+002	
-7.74945787E+000	-1.17607644E+002	
-7.72874456E+000	-1.17628947E+002	
-7.70803126E+000	-1.17590046E+002	
-7.68731795E+000	-1.17616965E+002	
-7.66660465E+000	-1.17612799E+002	
-7.64589134E+000	-1.17616987E+002	
-7.62517804E+000	-1.17617457E+002	
-7.60446473E+000	-1.17541201E+002	
-7.58375143E+000	-1.17550678E+002	
-7.56303812E+000	-1.17583087E+002	
-7.54232482E+000	-1.17646595E+002	
-7.52161151E+000	-1.17625704E+002	
-7.50089820E+000	-1.17636365E+002	
-7.48018490E+000	-1.17612726E+002	
-7.45947159E+000	-1.17660812E+002	
-7.43875829E+000	-1.17591264E+002	
-7.41804498E+000	-1.17515991E+002	
-7.39733168E+000	-1.17552849E+002	
-7.37661837E+000	-1.17553259E+002	
-7.35590507E+000	-1.17563127E+002	
-7.33519176E+000	-1.17592310E+002	
-7.31447846E+000	-1.17620285E+002	
-7.29376515E+000	-1.17601792E+002	
-7.27305185E+000	-1.17574332E+002	
-7.25233854E+000	-1.17602547E+002	
-7.23162524E+000	-1.17601641E+002	
-7.21091193E+000	-1.17592326E+002	
-7.19019862E+000	-1.17583115E+002	
-7.16948532E+000	-1.17626322E+002	
-7.14877201E+000	-1.17690604E+002	
-7.12805871E+000	-1.17737069E+002	
-7.10734540E+000	-1.17818038E+002	
-7.08663210E+000	-1.17860346E+002	
-7.06591879E+000	-1.17836978E+002	
-7.04520549E+000	-1.17830104E+002	
-7.02449218E+000	-1.17816411E+002	
-7.00377888E+000	-1.17791747E+002	
-6.98306557E+000	-1.17826832E+002	
-6.96235227E+000	-1.17793191E+002	
-6.94163896E+000	-1.17828288E+002	
-6.92092566E+000	-1.17886144E+002	
-6.90021235E+000	-1.17896091E+002	
-6.87949904E+000	-1.17878733E+002	
-6.85878574E+000	-1.17864123E+002	
-6.83807243E+000	-1.17882799E+002	
-6.81735913E+000	-1.17894656E+002	
-6.79664582E+000	-1.17853192E+002	
-6.77593252E+000	-1.17884610E+002	
-6.75521921E+000	-1.17836162E+002	
-6.73450591E+000	-1.17833172E+002	
-6.71379260E+000	-1.17811781E+002	
-6.69307930E+000	-1.17809261E+002	
-6.67236599E+000	-1.17768199E+002	
-6.65165269E+000	-1.17749472E+002	
-6.63093938E+000	-1.17758118E+002	
-6.61022608E+000	-1.17769903E+002	
-6.58951277E+000	-1.17762188E+002	
-6.56879947E+000	-1.17748954E+002	
-6.54808616E+000	-1.17713894E+002	
-6.52737285E+000	-1.17696351E+002	
-6.50665955E+000	-1.17729978E+002	
-6.48594624E+000	-1.17766363E+002	
-6.46523294E+000	-1.17794069E+002	
-6.44451963E+000	-1.17727067E+002	
-6.42380633E+000	-1.17683162E+002	
-6.40309302E+000	-1.17670528E+002	
-6.38237972E+000	-1.17644243E+002	
-6.36166641E+000	-1.17642116E+002	
-6.34095311E+000	-1.17643326E+002	
-6.32023980E+000	-1.17637063E+002	
-6.29952650E+000	-1.17650699E+002	
-6.27881319E+000	-1.17623091E+002	
-6.25809989E+000	-1.17642092E+002	
-6.23738658E+000	-1.17635168E+002	
-6.21667327E+000	-1.17618721E+002	
-6.19595997E+000	-1.17627929E+002	
-6.17524666E+000	-1.17619154E+002	
-6.15453336E+000	-1.17622050E+002	
-6.13382005E+000	-1.17602933E+002	
-6.11310675E+000	-1.17610880E+002	
-6.09239344E+000	-1.17604956E+002	
-6.07168014E+000	-1.17560707E+002	
-6.05096683E+000	-1.17633275E+002	
-6.03025353E+000	-1.17641835E+002	
-6.00954022E+000	-1.17611263E+002	
-5.98882692E+000	-1.17559884E+002	
-5.96811361E+000	-1.17571698E+002	
-5.94740031E+000	-1.17615047E+002	
-5.92668700E+000	-1.17662674E+002	
-5.90597369E+000	-1.17673288E+002	
-5.88526039E+000	-1.17721105E+002	
-5.86454708E+000	-1.17742366E+002	
-5.84383378E+000	-1.17713051E+002	
-5.82312047E+000	-1.17724657E+002	
-5.80240717E+000	-1.17691988E+002	
-5.78169386E+000	-1.17706015E+002	
-5.76098056E+000	-1.17708397E+002	
-5.74026725E+000	-1.17708619E+002	
-5.71955395E+000	-1.17746611E+002	
-5.69884064E+000	-1.17753505E+002	
-5.67812734E+000	-1.17775963E+002	
-5.65741403E+000	-1.17773842E+002	
-5.63670073E+000	-1.17786665E+002	
-5.61598742E+000	-1.17763815E+002	
-5.59527412E+000	-1.17721534E+002	
-5.57456081E+000	-1.17787828E+002	
-5.55384750E+000	-1.17717811E+002	
-5.53313420E+000	-1.17653830E+002	
-5.51242089E+000	-1.17669791E+002	
-5.49170759E+000	-1.17677666E+002	
-5.47099428E+000	-1.17657437E+002	
-5.45028098E+000	-1.17707946E+002	
-5.42956767E+000	-1.17751408E+002	
-5.40885437E+000	-1.17736989E+002	
-5.38814106E+000	-1.17730451E+002	
-5.36742776E+000	-1.17703461E+002	
-5.34671445E+000	-1.17737373E+002	
-5.32600115E+000	-1.17743935E+002	
-5.30528784E+000	-1.17768661E+002	
-5.28457454E+000	-1.17753206E+002	
-5.26386123E+000	-1.17730753E+002	
-5.24314792E+000	-1.17670317E+002	
-5.22243462E+000	-1.17647996E+002	
-5.20172131E+000	-1.17646573E+002	
-5.18100801E+000	-1.17618100E+002	
-5.16029470E+000	-1.17615036E+002	
-5.13958140E+000	-1.17566476E+002	
-5.11886809E+000	-1.17539925E+002	
-5.09815479E+000	-1.17555416E+002	
-5.07744148E+000	-1.17522177E+002	
-5.05672818E+000	-1.17591883E+002	
-5.03601487E+000	-1.17619525E+002	
-5.01530157E+000	-1.17662471E+002	
-4.99458826E+000	-1.17671748E+002	
-4.97387496E+000	-1.17614195E+002	
-4.95316165E+000	-1.17609570E+002	
-4.93244834E+000	-1.17564172E+002	
-4.91173504E+000	-1.17549621E+002	
-4.89102173E+000	-1.17535642E+002	
-4.87030843E+000	-1.17565798E+002	
-4.84959512E+000	-1.17548332E+002	
-4.82888182E+000	-1.17507187E+002	
-4.80816851E+000	-1.17491873E+002	
-4.78745521E+000	-1.17496184E+002	
-4.76674190E+000	-1.17522137E+002	
-4.74602860E+000	-1.17535167E+002	
-4.72531529E+000	-1.17584782E+002	
-4.70460199E+000	-1.17574510E+002	
-4.68388868E+000	-1.17607223E+002	
-4.66317538E+000	-1.17589421E+002	
-4.64246207E+000	-1.17638022E+002	
-4.62174877E+000	-1.17687018E+002	
-4.60103546E+000	-1.17710256E+002	
-4.58032215E+000	-1.17727590E+002	
-4.55960885E+000	-1.17692438E+002	
-4.53889554E+000	-1.17722862E+002	
-4.51818224E+000	-1.17643963E+002	
-4.49746893E+000	-1.17592934E+002	
-4.47675563E+000	-1.17640796E+002	
-4.45604232E+000	-1.17624250E+002	
-4.43532902E+000	-1.17625145E+002	
-4.41461571E+000	-1.17621426E+002	
-4.39390241E+000	-1.17634929E+002	
-4.37318910E+000	-1.17640884E+002	
-4.35247580E+000	-1.17623532E+002	
-4.33176249E+000	-1.17621636E+002	
-4.31104919E+000	-1.17619254E+002	
-4.29033588E+000	-1.17608993E+002	
-4.26962257E+000	-1.17599973E+002	
-4.24890927E+000	-1.17645726E+002	
-4.22819596E+000	-1.17653652E+002	
-4.20748266E+000	-1.17686199E+002	
-4.18676935E+000	-1.17649237E+002	
-4.16605605E+000	-1.17659526E+002	
-4.14534274E+000	-1.17664649E+002	
-4.12462944E+000	-1.17617395E+002	
-4.10391613E+000	-1.17618088E+002	
-4.08320283E+000	-1.17610657E+002	
-4.06248952E+000	-1.17596567E+002	
-4.04177622E+000	-1.17551541E+002	
-4.02106291E+000	-1.17587415E+002	
-4.00034961E+000	-1.17589193E+002	
-3.97963630E+000	-1.17550431E+002	
-3.95892299E+000	-1.17557554E+002	
-3.93820969E+000	-1.17526527E+002	
-3.91749638E+000	-1.17539612E+002	
-3.89678308E+000	-1.17512851E+002	
-3.87606977E+000	-1.17453214E+002	
-3.85535647E+000	-1.17458099E+002	
-3.83464316E+000	-1.17443387E+002	
-3.81392986E+000	-1.17437441E+002	
-3.79321655E+000	-1.17472292E+002	
-3.77250325E+000	-1.17422630E+002	
-3.75178994E+000	-1.17436943E+002	
-3.73107664E+000	-1.17441551E+002	
-3.71036333E+000	-1.17384035E+002	
-3.68965003E+000	-1.17399831E+002	
-3.66893672E+000	-1.17447958E+002	
-3.64822342E+000	-1.17411024E+002	
-3.62751011E+000	-1.17431334E+002	
-3.60679680E+000	-1.17431642E+002	
-3.58608350E+000	-1.17434014E+002	
-3.56537019E+000	-1.17460254E+002	
-3.54465689E+000	-1.17464903E+002	
-3.52394358E+000	-1.17489532E+002	
-3.50323028E+000	-1.17535732E+002	
-3.48251697E+000	-1.17573012E+002	
-3.46180367E+000	-1.17611960E+002	
-3.44109036E+000	-1.17632845E+002	
-3.42037706E+000	-1.17665136E+002	
-3.39966375E+000	-1.17709895E+002	
-3.37895045E+000	-1.17759456E+002	
-3.35823714E+000	-1.17754960E+002	
-3.33752384E+000	-1.17761246E+002	
-3.31681053E+000	-1.17763560E+002	
-3.29609722E+000	-1.17735752E+002	
-3.27538392E+000	-1.17756299E+002	
-3.25467061E+000	-1.17773457E+002	
-3.23395731E+000	-1.17767968E+002	
-3.21324400E+000	-1.17795600E+002	
-3.19253070E+000	-1.17802264E+002	
-3.17181739E+000	-1.17766280E+002	
-3.15110409E+000	-1.17752739E+002	
-3.13039078E+000	-1.17750239E+002	
-3.10967748E+000	-1.17787201E+002	
-3.08896417E+000	-1.17762159E+002	
-3.06825087E+000	-1.17742742E+002	
-3.04753756E+000	-1.17772478E+002	
-3.02682426E+000	-1.17744967E+002	
-3.00611095E+000	-1.17672097E+002	
-2.98539764E+000	-1.17715804E+002	
-2.96468434E+000	-1.17678326E+002	
-2.94397103E+000	-1.17656080E+002	
-2.92325773E+000	-1.17608951E+002	
-2.90254442E+000	-1.17592078E+002	
-2.88183112E+000	-1.17604640E+002	
-2.86111781E+000	-1.17643450E+002	
-2.84040451E+000	-1.17683726E+002	
-2.81969120E+000	-1.17716995E+002	
-2.79897790E+000	-1.17782546E+002	
-2.77826459E+000	-1.17755348E+002	
-2.75755129E+000	-1.17721642E+002	
-2.73683798E+000	-1.17733574E+002	
-2.71612468E+000	-1.17681625E+002	
-2.69541137E+000	-1.17671024E+002	
-2.67469807E+000	-1.17741091E+002	
-2.65398476E+000	-1.17772425E+002	
-2.63327145E+000	-1.17766736E+002	
-2.61255815E+000	-1.17709778E+002	
-2.59184484E+000	-1.17720833E+002	
-2.57113154E+000	-1.17720468E+002	
-2.55041823E+000	-1.17713963E+002	
-2.52970493E+000	-1.17771994E+002	
-2.50899162E+000	-1.17839103E+002	
-2.48827832E+000	-1.17827454E+002	
-2.46756501E+000	-1.17835761E+002	
-2.44685171E+000	-1.17833752E+002	
-2.42613840E+000	-1.17866852E+002	
-2.40542510E+000	-1.17889132E+002	
-2.38471179E+000	-1.17878573E+002	
-2.36399849E+000	-1.17866016E+002	
-2.34328518E+000	-1.17814328E+002	
-2.32257187E+000	-1.17772599E+002	
-2.30185857E+000	-1.17710848E+002	
-2.28114526E+000	-1.17718870E+002	
-2.26043196E+000	-1.17791615E+002	
-2.23971865E+000	-1.17770365E+002	
-2.21900535E+000	-1.17820600E+002	
-2.19829204E+000	-1.17850512E+002	
-2.17757874E+000	-1.17806520E+002	
-2.15686543E+000	-1.17785861E+002	
-2.13615213E+000	-1.17828280E+002	
-2.11543882E+000	-1.17839729E+002	
-2.09472552E+000	-1.17859377E+002	
-2.07401221E+000	-1.17836234E+002	
-2.05329891E+000	-1.17791375E+002	
-2.03258560E+000	-1.17808582E+002	
-2.01187229E+000	-1.17808999E+002	
-1.99115899E+000	-1.17804933E+002	
-1.97044568E+000	-1.17743922E+002	
-1.94973238E+000	-1.17758302E+002	
-1.92901907E+000	-1.17737713E+002	
-1.90830577E+000	-1.17687583E+002	
-1.88759246E+000	-1.17673662E+002	
-1.86687916E+000	-1.17689887E+002	
-1.84616585E+000	-1.17659648E+002	
-1.82545255E+000	-1.17734690E+002	
-1.80473924E+000	-1.17732312E+002	
-1.78402594E+000	-1.17763984E+002	
-1.76331263E+000	-1.17766152E+002	
-1.74259933E+000	-1.17729517E+002	
-1.72188602E+000	-1.17725301E+002	
-1.70117272E+000	-1.17778923E+002	
-1.68045941E+000	-1.17793626E+002	
-1.65974610E+000	-1.17746926E+002	
-1.63903280E+000	-1.17717340E+002	
-1.61831949E+000	-1.17767085E+002	
-1.59760619E+000	-1.17772904E+002	
-1.57689288E+000	-1.17786169E+002	
-1.55617958E+000	-1.17846010E+002	
-1.53546627E+000	-1.17826359E+002	
-1.51475297E+000	-1.17816658E+002	
-1.49403966E+000	-1.17783759E+002	
-1.47332636E+000	-1.17813706E+002	
-1.45261305E+000	-1.17776756E+002	
-1.43189975E+000	-1.17772215E+002	
-1.41118644E+000	-1.17758921E+002	
-1.39047314E+000	-1.17777830E+002	
-1.36975983E+000	-1.17750989E+002	
-1.34904652E+000	-1.17752637E+002	
-1.32833322E+000	-1.17706951E+002	
-1.30761991E+000	-1.17671479E+002	
-1.28690661E+000	-1.17674006E+002	
-1.26619330E+000	-1.17658248E+002	
-1.24548000E+000	-1.17696482E+002	
-1.22476669E+000	-1.17733941E+002	
-1.20405339E+000	-1.17643758E+002	
-1.18334008E+000	-1.17640687E+002	
-1.16262678E+000	-1.17712266E+002	
-1.14191347E+000	-1.17730638E+002	
-1.12120017E+000	-1.17719308E+002	
-1.10048686E+000	-1.17692786E+002	
-1.07977356E+000	-1.17695261E+002	
-1.05906025E+000	-1.17721148E+002	
-1.03834694E+000	-1.17699270E+002	
-1.01763364E+000	-1.17650718E+002	
-9.96920334E-001	-1.17608448E+002	
-9.76207029E-001	-1.17592518E+002	
-9.55493724E-001	-1.17611790E+002	
-9.34780418E-001	-1.17637064E+002	
-9.14067113E-001	-1.17701424E+002	
-8.93353808E-001	-1.17698198E+002	
-8.72640502E-001	-1.17679930E+002	
-8.51927197E-001	-1.17723322E+002	
-8.31213892E-001	-1.17753220E+002	
-8.10500586E-001	-1.17802862E+002	
-7.89787281E-001	-1.17819095E+002	
-7.69073976E-001	-1.17830855E+002	
-7.48360671E-001	-1.17811799E+002	
-7.27647365E-001	-1.17803758E+002	
-7.06934060E-001	-1.17842946E+002	
-6.86220755E-001	-1.17868272E+002	
-6.65507449E-001	-1.17893671E+002	
-6.44794144E-001	-1.17893375E+002	
-6.24080839E-001	-1.17860416E+002	
-6.03367533E-001	-1.17849835E+002	
-5.82654228E-001	-1.17829512E+002	
-5.61940923E-001	-1.17779615E+002	
-5.41227617E-001	-1.17746168E+002	
-5.20514312E-001	-1.17762229E+002	
-4.99801007E-001	-1.17835646E+002	
-4.79087701E-001	-1.17897787E+002	
-4.58374396E-001	-1.17916041E+002	
-4.37661091E-001	-1.17874361E+002	
-4.16947785E-001	-1.17820642E+002	
-3.96234480E-001	-1.17810675E+002	
-3.75521175E-001	-1.17824760E+002	
-3.54807869E-001	-1.17820411E+002	
-3.34094564E-001	-1.17824275E+002	
-3.13381259E-001	-1.17853300E+002	
-2.92667954E-001	-1.17848570E+002	
-2.71954648E-001	-1.17816837E+002	
-2.51241343E-001	-1.08755812E+002	
-2.30528038E-001	-1.08441992E+002	
-2.09814732E-001	-1.08439030E+002	
-1.89101427E-001	-1.08428022E+002	
-1.68388122E-001	-1.08413976E+002	
-1.47674816E-001	-1.08408505E+002	
-1.26961511E-001	-1.08406845E+002	
-1.06248206E-001	-1.08393821E+002	
-8.55349003E-002	-1.08389855E+002	
-6.48215950E-002	-1.08387450E+002	
-4.41082897E-002	-1.08389894E+002	
-2.33949844E-002	-1.08387143E+002	
-2.68167905E-003	-1.08385268E+002	
1.80316263E-002	-1.08374232E+002	
3.87449316E-002	-1.08368658E+002	
5.94582369E-002	-1.08370243E+002	
8.01715422E-002	-1.08374374E+002	
1.00884848E-001	-1.08372833E+002	
1.21598153E-001	-1.08362268E+002	
1.42311458E-001	-1.08357987E+002	
1.63024763E-001	-1.08356287E+002	
1.83738069E-001	-1.08348996E+002	
2.04451374E-001	-1.08339855E+002	
2.25164679E-001	-1.08341908E+002	
2.45877985E-001	-1.13139285E+002	
2.66591290E-001	-1.17021004E+002	
2.87304595E-001	-1.17022725E+002	
3.08017901E-001	-1.17077944E+002	
3.28731206E-001	-1.17129474E+002	
3.49444511E-001	-1.17138250E+002	
3.70157817E-001	-1.17172639E+002	
3.90871122E-001	-1.17251431E+002	
4.11584427E-001	-1.17226079E+002	
4.32297733E-001	-1.17208708E+002	
4.53011038E-001	-1.17204181E+002	
4.73724343E-001	-1.17219587E+002	
4.94437649E-001	-1.17210416E+002	
5.15150954E-001	-1.17246717E+002	
5.35864259E-001	-1.17253826E+002	
5.56577565E-001	-1.17289203E+002	
5.77290870E-001	-1.17239568E+002	
5.98004175E-001	-1.17213980E+002	
6.18717481E-001	-1.17263156E+002	
6.39430786E-001	-1.17271378E+002	
6.60144091E-001	-1.17251121E+002	
6.80857396E-001	-1.17284738E+002	
7.01570702E-001	-1.17308576E+002	
7.22284007E-001	-1.17309489E+002	
7.42997312E-001	-1.17281617E+002	
7.63710618E-001	-1.17283273E+002	
7.84423923E-001	-1.17256810E+002	
8.05137228E-001	-1.17235397E+002	
8.25850534E-001	-1.17215552E+002	
8.46563839E-001	-1.17186789E+002	
8.67277144E-001	-1.17166527E+002	
8.87990450E-001	-1.17152349E+002	
9.08703755E-001	-1.17247188E+002	
9.29417060E-001	-1.17295699E+002	
9.50130366E-001	-1.17318156E+002	
9.70843671E-001	-1.17278007E+002	
9.91556976E-001	-1.17267799E+002	
1.01227028E+000	-1.17294579E+002	
1.03298359E+000	-1.17289766E+002	
1.05369689E+000	-1.17260092E+002	
1.07441020E+000	-1.17276729E+002	
1.09512350E+000	-1.17288362E+002	
1.11583681E+000	-1.17346516E+002	
1.13655011E+000	-1.17350526E+002	
1.15726342E+000	-1.17350854E+002	
1.17797672E+000	-1.17320458E+002	
1.19869003E+000	-1.17364680E+002	
1.21940333E+000	-1.17346422E+002	
1.24011664E+000	-1.17360347E+002	
1.26082995E+000	-1.17351754E+002	
1.28154325E+000	-1.17357339E+002	
1.30225656E+000	-1.17366057E+002	
1.32296986E+000	-1.17364768E+002	
1.34368317E+000	-1.17396508E+002	
1.36439647E+000	-1.17463814E+002	
1.38510978E+000	-1.17472830E+002	
1.40582308E+000	-1.17405144E+002	
1.42653639E+000	-1.17410395E+002	
1.44724969E+000	-1.17402728E+002	
1.46796300E+000	-1.17415087E+002	
1.48867630E+000	-1.17439971E+002	
1.50938961E+000	-1.17417495E+002	
1.53010291E+000	-1.17415249E+002	
1.55081622E+000	-1.17400008E+002	
1.57152953E+000	-1.17399496E+002	
