Acquired on 5/10/2021 at 15:28:11
Calibrated on 5/10/2021 at 10:35:08
Device Descriptor:  [none]
Scan Range (nm):  1539.624  --  1560.517
Measurement Type:  Reflection
Group Index:  1.500
Gain:  24 dB
Domain:  Time
Spatial Resolution (mm):  50.000000
Frequency domain window was applied to measurement data.
Number of Data Points (in this file):  16384
NOTE: Data stored in this file is decimated by a factor of 64.

Time (ns)	Amplitude (dB)	
-1.00072081E+001	-1.20316705E+002	
-9.98649484E+000	-1.19994239E+002	
-9.96578154E+000	-1.19672851E+002	
-9.94506823E+000	-1.19420890E+002	
-9.92435493E+000	-1.19189604E+002	
-9.90364162E+000	-1.18956493E+002	
-9.88292832E+000	-1.18738754E+002	
-9.86221501E+000	-1.18519725E+002	
-9.84150171E+000	-1.18322527E+002	
-9.82078840E+000	-1.18140656E+002	
-9.80007509E+000	-1.17928188E+002	
-9.77936179E+000	-1.17742509E+002	
-9.75864848E+000	-1.17685986E+002	
-9.73793518E+000	-1.17711281E+002	
-9.71722187E+000	-1.17712480E+002	
-9.69650857E+000	-1.17724169E+002	
-9.67579526E+000	-1.17795800E+002	
-9.65508196E+000	-1.17770634E+002	
-9.63436865E+000	-1.17705402E+002	
-9.61365535E+000	-1.17695621E+002	
-9.59294204E+000	-1.17705827E+002	
-9.57222874E+000	-1.17740990E+002	
-9.55151543E+000	-1.17761498E+002	
-9.53080213E+000	-1.17745621E+002	
-9.51008882E+000	-1.17773403E+002	
-9.48937552E+000	-1.17787980E+002	
-9.46866221E+000	-1.17766896E+002	
-9.44794890E+000	-1.17731687E+002	
-9.42723560E+000	-1.17680703E+002	
-9.40652229E+000	-1.17665955E+002	
-9.38580899E+000	-1.17636041E+002	
-9.36509568E+000	-1.17628843E+002	
-9.34438238E+000	-1.17583687E+002	
-9.32366907E+000	-1.17556572E+002	
-9.30295577E+000	-1.17569779E+002	
-9.28224246E+000	-1.17574866E+002	
-9.26152916E+000	-1.17525962E+002	
-9.24081585E+000	-1.17456795E+002	
-9.22010255E+000	-1.17442510E+002	
-9.19938924E+000	-1.17472851E+002	
-9.17867594E+000	-1.17440753E+002	
-9.15796263E+000	-1.17437473E+002	
-9.13724932E+000	-1.17500523E+002	
-9.11653602E+000	-1.17513354E+002	
-9.09582271E+000	-1.17488227E+002	
-9.07510941E+000	-1.17487151E+002	
-9.05439610E+000	-1.17476663E+002	
-9.03368280E+000	-1.17359849E+002	
-9.01296949E+000	-1.17352682E+002	
-8.99225619E+000	-1.17354606E+002	
-8.97154288E+000	-1.17406302E+002	
-8.95082958E+000	-1.17420002E+002	
-8.93011627E+000	-1.17442459E+002	
-8.90940297E+000	-1.17461297E+002	
-8.88868966E+000	-1.17482180E+002	
-8.86797636E+000	-1.17470794E+002	
-8.84726305E+000	-1.17478064E+002	
-8.82654974E+000	-1.17463577E+002	
-8.80583644E+000	-1.17481387E+002	
-8.78512313E+000	-1.17474596E+002	
-8.76440983E+000	-1.17475527E+002	
-8.74369652E+000	-1.17546664E+002	
-8.72298322E+000	-1.17562763E+002	
-8.70226991E+000	-1.17490175E+002	
-8.68155661E+000	-1.17469768E+002	
-8.66084330E+000	-1.17494463E+002	
-8.64013000E+000	-1.17447088E+002	
-8.61941669E+000	-1.17401563E+002	
-8.59870339E+000	-1.17426674E+002	
-8.57799008E+000	-1.17423708E+002	
-8.55727678E+000	-1.17403488E+002	
-8.53656347E+000	-1.17510190E+002	
-8.51585017E+000	-1.17518680E+002	
-8.49513686E+000	-1.17518011E+002	
-8.47442355E+000	-1.17506348E+002	
-8.45371025E+000	-1.17523502E+002	
-8.43299694E+000	-1.17558084E+002	
-8.41228364E+000	-1.17537976E+002	
-8.39157033E+000	-1.17525360E+002	
-8.37085703E+000	-1.17567140E+002	
-8.35014372E+000	-1.17580845E+002	
-8.32943042E+000	-1.17598710E+002	
-8.30871711E+000	-1.17549453E+002	
-8.28800381E+000	-1.17582769E+002	
-8.26729050E+000	-1.17589690E+002	
-8.24657720E+000	-1.17585369E+002	
-8.22586389E+000	-1.17566040E+002	
-8.20515059E+000	-1.17620440E+002	
-8.18443728E+000	-1.17625045E+002	
-8.16372397E+000	-1.17614378E+002	
-8.14301067E+000	-1.17579921E+002	
-8.12229736E+000	-1.17593606E+002	
-8.10158406E+000	-1.17598566E+002	
-8.08087075E+000	-1.17597961E+002	
-8.06015745E+000	-1.17568522E+002	
-8.03944414E+000	-1.17533719E+002	
-8.01873084E+000	-1.17554323E+002	
-7.99801753E+000	-1.17556120E+002	
-7.97730423E+000	-1.17550457E+002	
-7.95659092E+000	-1.17522648E+002	
-7.93587762E+000	-1.17539512E+002	
-7.91516431E+000	-1.17569855E+002	
-7.89445101E+000	-1.17565084E+002	
-7.87373770E+000	-1.17548877E+002	
-7.85302439E+000	-1.17550557E+002	
-7.83231109E+000	-1.17534966E+002	
-7.81159778E+000	-1.17581183E+002	
-7.79088448E+000	-1.17598878E+002	
-7.77017117E+000	-1.17614940E+002	
-7.74945787E+000	-1.17616939E+002	
-7.72874456E+000	-1.17630807E+002	
-7.70803126E+000	-1.17600705E+002	
-7.68731795E+000	-1.17633307E+002	
-7.66660465E+000	-1.17620868E+002	
-7.64589134E+000	-1.17627967E+002	
-7.62517804E+000	-1.17627972E+002	
-7.60446473E+000	-1.17545881E+002	
-7.58375143E+000	-1.17562596E+002	
-7.56303812E+000	-1.17600742E+002	
-7.54232482E+000	-1.17657440E+002	
-7.52161151E+000	-1.17642659E+002	
-7.50089820E+000	-1.17651111E+002	
-7.48018490E+000	-1.17631504E+002	
-7.45947159E+000	-1.17675731E+002	
-7.43875829E+000	-1.17600954E+002	
-7.41804498E+000	-1.17527294E+002	
-7.39733168E+000	-1.17564227E+002	
-7.37661837E+000	-1.17558935E+002	
-7.35590507E+000	-1.17569535E+002	
-7.33519176E+000	-1.17598917E+002	
-7.31447846E+000	-1.17624817E+002	
-7.29376515E+000	-1.17606859E+002	
-7.27305185E+000	-1.17572157E+002	
-7.25233854E+000	-1.17596173E+002	
-7.23162524E+000	-1.17594999E+002	
-7.21091193E+000	-1.17581442E+002	
-7.19019862E+000	-1.17572955E+002	
-7.16948532E+000	-1.17617187E+002	
-7.14877201E+000	-1.17682779E+002	
-7.12805871E+000	-1.17724522E+002	
-7.10734540E+000	-1.17809840E+002	
-7.08663210E+000	-1.17847282E+002	
-7.06591879E+000	-1.17821423E+002	
-7.04520549E+000	-1.17807777E+002	
-7.02449218E+000	-1.17787601E+002	
-7.00377888E+000	-1.17763788E+002	
-6.98306557E+000	-1.17795351E+002	
-6.96235227E+000	-1.17754982E+002	
-6.94163896E+000	-1.17801616E+002	
-6.92092566E+000	-1.17865707E+002	
-6.90021235E+000	-1.17875424E+002	
-6.87949904E+000	-1.17850653E+002	
-6.85878574E+000	-1.17834093E+002	
-6.83807243E+000	-1.17849983E+002	
-6.81735913E+000	-1.17859216E+002	
-6.79664582E+000	-1.17815832E+002	
-6.77593252E+000	-1.17856855E+002	
-6.75521921E+000	-1.17814124E+002	
-6.73450591E+000	-1.17820827E+002	
-6.71379260E+000	-1.17802887E+002	
-6.69307930E+000	-1.17802912E+002	
-6.67236599E+000	-1.17768169E+002	
-6.65165269E+000	-1.17752008E+002	
-6.63093938E+000	-1.17758102E+002	
-6.61022608E+000	-1.17768794E+002	
-6.58951277E+000	-1.17757624E+002	
-6.56879947E+000	-1.17743426E+002	
-6.54808616E+000	-1.17717026E+002	
-6.52737285E+000	-1.17700429E+002	
-6.50665955E+000	-1.17727194E+002	
-6.48594624E+000	-1.17765567E+002	
-6.46523294E+000	-1.17803249E+002	
-6.44451963E+000	-1.17730711E+002	
-6.42380633E+000	-1.17682998E+002	
-6.40309302E+000	-1.17663703E+002	
-6.38237972E+000	-1.17641274E+002	
-6.36166641E+000	-1.17650559E+002	
-6.34095311E+000	-1.17656674E+002	
-6.32023980E+000	-1.17654178E+002	
-6.29952650E+000	-1.17672941E+002	
-6.27881319E+000	-1.17644047E+002	
-6.25809989E+000	-1.17660538E+002	
-6.23738658E+000	-1.17650825E+002	
-6.21667327E+000	-1.17631457E+002	
-6.19595997E+000	-1.17634434E+002	
-6.17524666E+000	-1.17621490E+002	
-6.15453336E+000	-1.17626614E+002	
-6.13382005E+000	-1.17615400E+002	
-6.11310675E+000	-1.17622005E+002	
-6.09239344E+000	-1.17616108E+002	
-6.07168014E+000	-1.17574622E+002	
-6.05096683E+000	-1.17643897E+002	
-6.03025353E+000	-1.17651676E+002	
-6.00954022E+000	-1.17623193E+002	
-5.98882692E+000	-1.17574872E+002	
-5.96811361E+000	-1.17581385E+002	
-5.94740031E+000	-1.17622686E+002	
-5.92668700E+000	-1.17662037E+002	
-5.90597369E+000	-1.17673737E+002	
-5.88526039E+000	-1.17719762E+002	
-5.86454708E+000	-1.17731773E+002	
-5.84383378E+000	-1.17698523E+002	
-5.82312047E+000	-1.17700251E+002	
-5.80240717E+000	-1.17672203E+002	
-5.78169386E+000	-1.17682138E+002	
-5.76098056E+000	-1.17682129E+002	
-5.74026725E+000	-1.17682439E+002	
-5.71955395E+000	-1.17720330E+002	
-5.69884064E+000	-1.17723822E+002	
-5.67812734E+000	-1.17744077E+002	
-5.65741403E+000	-1.17734048E+002	
-5.63670073E+000	-1.17735662E+002	
-5.61598742E+000	-1.17712786E+002	
-5.59527412E+000	-1.17677527E+002	
-5.57456081E+000	-1.17739357E+002	
-5.55384750E+000	-1.17669463E+002	
-5.53313420E+000	-1.17601817E+002	
-5.51242089E+000	-1.17619927E+002	
-5.49170759E+000	-1.17623561E+002	
-5.47099428E+000	-1.17604624E+002	
-5.45028098E+000	-1.17659882E+002	
-5.42956767E+000	-1.17696247E+002	
-5.40885437E+000	-1.17684469E+002	
-5.38814106E+000	-1.17675244E+002	
-5.36742776E+000	-1.17649351E+002	
-5.34671445E+000	-1.17680127E+002	
-5.32600115E+000	-1.17684489E+002	
-5.30528784E+000	-1.17705528E+002	
-5.28457454E+000	-1.17684727E+002	
-5.26386123E+000	-1.17670772E+002	
-5.24314792E+000	-1.17616111E+002	
-5.22243462E+000	-1.17599895E+002	
-5.20172131E+000	-1.17599051E+002	
-5.18100801E+000	-1.17571519E+002	
-5.16029470E+000	-1.17568633E+002	
-5.13958140E+000	-1.17527102E+002	
-5.11886809E+000	-1.17508972E+002	
-5.09815479E+000	-1.17526667E+002	
-5.07744148E+000	-1.17496216E+002	
-5.05672818E+000	-1.17564485E+002	
-5.03601487E+000	-1.17597837E+002	
-5.01530157E+000	-1.17641342E+002	
-4.99458826E+000	-1.17646355E+002	
-4.97387496E+000	-1.17587377E+002	
-4.95316165E+000	-1.17579335E+002	
-4.93244834E+000	-1.17533121E+002	
-4.91173504E+000	-1.17520382E+002	
-4.89102173E+000	-1.17509528E+002	
-4.87030843E+000	-1.17538900E+002	
-4.84959512E+000	-1.17524414E+002	
-4.82888182E+000	-1.17485991E+002	
-4.80816851E+000	-1.17471169E+002	
-4.78745521E+000	-1.17486939E+002	
-4.76674190E+000	-1.17500980E+002	
-4.74602860E+000	-1.17515951E+002	
-4.72531529E+000	-1.17556348E+002	
-4.70460199E+000	-1.17546482E+002	
-4.68388868E+000	-1.17577653E+002	
-4.66317538E+000	-1.17563107E+002	
-4.64246207E+000	-1.17609434E+002	
-4.62174877E+000	-1.17646522E+002	
-4.60103546E+000	-1.17662203E+002	
-4.58032215E+000	-1.17679241E+002	
-4.55960885E+000	-1.17638958E+002	
-4.53889554E+000	-1.17674705E+002	
-4.51818224E+000	-1.17598738E+002	
-4.49746893E+000	-1.17560327E+002	
-4.47675563E+000	-1.17606645E+002	
-4.45604232E+000	-1.17594939E+002	
-4.43532902E+000	-1.17601573E+002	
-4.41461571E+000	-1.17598941E+002	
-4.39390241E+000	-1.17607016E+002	
-4.37318910E+000	-1.17610793E+002	
-4.35247580E+000	-1.17593952E+002	
-4.33176249E+000	-1.17590174E+002	
-4.31104919E+000	-1.17586466E+002	
-4.29033588E+000	-1.17577495E+002	
-4.26962257E+000	-1.17579232E+002	
-4.24890927E+000	-1.17622088E+002	
-4.22819596E+000	-1.17626896E+002	
-4.20748266E+000	-1.17662218E+002	
-4.18676935E+000	-1.17627634E+002	
-4.16605605E+000	-1.17640025E+002	
-4.14534274E+000	-1.17648310E+002	
-4.12462944E+000	-1.17608731E+002	
-4.10391613E+000	-1.17605442E+002	
-4.08320283E+000	-1.17591538E+002	
-4.06248952E+000	-1.17583771E+002	
-4.04177622E+000	-1.17535357E+002	
-4.02106291E+000	-1.17565160E+002	
-4.00034961E+000	-1.17560911E+002	
-3.97963630E+000	-1.17522354E+002	
-3.95892299E+000	-1.17523693E+002	
-3.93820969E+000	-1.17490879E+002	
-3.91749638E+000	-1.17502522E+002	
-3.89678308E+000	-1.17478524E+002	
-3.87606977E+000	-1.17424641E+002	
-3.85535647E+000	-1.17434326E+002	
-3.83464316E+000	-1.17418102E+002	
-3.81392986E+000	-1.17411832E+002	
-3.79321655E+000	-1.17434684E+002	
-3.77250325E+000	-1.17386375E+002	
-3.75178994E+000	-1.17401347E+002	
-3.73107664E+000	-1.17402188E+002	
-3.71036333E+000	-1.17339868E+002	
-3.68965003E+000	-1.17355567E+002	
-3.66893672E+000	-1.17397849E+002	
-3.64822342E+000	-1.17365133E+002	
-3.62751011E+000	-1.17386576E+002	
-3.60679680E+000	-1.17394132E+002	
-3.58608350E+000	-1.17401365E+002	
-3.56537019E+000	-1.17427615E+002	
-3.54465689E+000	-1.17431461E+002	
-3.52394358E+000	-1.17454340E+002	
-3.50323028E+000	-1.17501119E+002	
-3.48251697E+000	-1.17540682E+002	
-3.46180367E+000	-1.17577219E+002	
-3.44109036E+000	-1.17598792E+002	
-3.42037706E+000	-1.17631493E+002	
-3.39966375E+000	-1.17676179E+002	
-3.37895045E+000	-1.17718106E+002	
-3.35823714E+000	-1.17715058E+002	
-3.33752384E+000	-1.17729236E+002	
-3.31681053E+000	-1.17734151E+002	
-3.29609722E+000	-1.17711695E+002	
-3.27538392E+000	-1.17730280E+002	
-3.25467061E+000	-1.17745105E+002	
-3.23395731E+000	-1.17747313E+002	
-3.21324400E+000	-1.17779599E+002	
-3.19253070E+000	-1.17786370E+002	
-3.17181739E+000	-1.17756246E+002	
-3.15110409E+000	-1.17733960E+002	
-3.13039078E+000	-1.17724015E+002	
-3.10967748E+000	-1.17759738E+002	
-3.08896417E+000	-1.17733591E+002	
-3.06825087E+000	-1.17717000E+002	
-3.04753756E+000	-1.17753175E+002	
-3.02682426E+000	-1.17728329E+002	
-3.00611095E+000	-1.17662571E+002	
-2.98539764E+000	-1.17700032E+002	
-2.96468434E+000	-1.17664779E+002	
-2.94397103E+000	-1.17643057E+002	
-2.92325773E+000	-1.17598567E+002	
-2.90254442E+000	-1.17579669E+002	
-2.88183112E+000	-1.17593268E+002	
-2.86111781E+000	-1.17633402E+002	
-2.84040451E+000	-1.17667032E+002	
-2.81969120E+000	-1.17702567E+002	
-2.79897790E+000	-1.17771187E+002	
-2.77826459E+000	-1.17739138E+002	
-2.75755129E+000	-1.17715657E+002	
-2.73683798E+000	-1.17722814E+002	
-2.71612468E+000	-1.17673350E+002	
-2.69541137E+000	-1.17663188E+002	
-2.67469807E+000	-1.17728097E+002	
-2.65398476E+000	-1.17756372E+002	
-2.63327145E+000	-1.17747060E+002	
-2.61255815E+000	-1.17699390E+002	
-2.59184484E+000	-1.17711250E+002	
-2.57113154E+000	-1.17712908E+002	
-2.55041823E+000	-1.17701893E+002	
-2.52970493E+000	-1.17758486E+002	
-2.50899162E+000	-1.17820935E+002	
-2.48827832E+000	-1.17802481E+002	
-2.46756501E+000	-1.17807516E+002	
-2.44685171E+000	-1.17801488E+002	
-2.42613840E+000	-1.17834479E+002	
-2.40542510E+000	-1.17858234E+002	
-2.38471179E+000	-1.17857584E+002	
-2.36399849E+000	-1.17838459E+002	
-2.34328518E+000	-1.17786182E+002	
-2.32257187E+000	-1.17742830E+002	
-2.30185857E+000	-1.17667662E+002	
-2.28114526E+000	-1.17678752E+002	
-2.26043196E+000	-1.17743000E+002	
-2.23971865E+000	-1.17719416E+002	
-2.21900535E+000	-1.17769713E+002	
-2.19829204E+000	-1.17793961E+002	
-2.17757874E+000	-1.17750640E+002	
-2.15686543E+000	-1.17732072E+002	
-2.13615213E+000	-1.17779771E+002	
-2.11543882E+000	-1.17786042E+002	
-2.09472552E+000	-1.17807312E+002	
-2.07401221E+000	-1.17771343E+002	
-2.05329891E+000	-1.17728784E+002	
-2.03258560E+000	-1.17741942E+002	
-2.01187229E+000	-1.17743461E+002	
-1.99115899E+000	-1.17742113E+002	
-1.97044568E+000	-1.17687727E+002	
-1.94973238E+000	-1.17703319E+002	
-1.92901907E+000	-1.17682206E+002	
-1.90830577E+000	-1.17637440E+002	
-1.88759246E+000	-1.17627043E+002	
-1.86687916E+000	-1.17643466E+002	
-1.84616585E+000	-1.17606922E+002	
-1.82545255E+000	-1.17681436E+002	
-1.80473924E+000	-1.17690107E+002	
-1.78402594E+000	-1.17731280E+002	
-1.76331263E+000	-1.17726382E+002	
-1.74259933E+000	-1.17690829E+002	
-1.72188602E+000	-1.17690976E+002	
-1.70117272E+000	-1.17746125E+002	
-1.68045941E+000	-1.17761334E+002	
-1.65974610E+000	-1.17725450E+002	
-1.63903280E+000	-1.17693322E+002	
-1.61831949E+000	-1.17745690E+002	
-1.59760619E+000	-1.17745164E+002	
-1.57689288E+000	-1.17765665E+002	
-1.55617958E+000	-1.17833189E+002	
-1.53546627E+000	-1.17819942E+002	
-1.51475297E+000	-1.17809359E+002	
-1.49403966E+000	-1.17774107E+002	
-1.47332636E+000	-1.17806140E+002	
-1.45261305E+000	-1.17784102E+002	
-1.43189975E+000	-1.17784918E+002	
-1.41118644E+000	-1.17764054E+002	
-1.39047314E+000	-1.17775159E+002	
-1.36975983E+000	-1.17743839E+002	
-1.34904652E+000	-1.17757735E+002	
-1.32833322E+000	-1.17705724E+002	
-1.30761991E+000	-1.17667956E+002	
-1.28690661E+000	-1.17664552E+002	
-1.26619330E+000	-1.17659119E+002	
-1.24548000E+000	-1.17701976E+002	
-1.22476669E+000	-1.17731321E+002	
-1.20405339E+000	-1.17637876E+002	
-1.18334008E+000	-1.17640329E+002	
-1.16262678E+000	-1.17705934E+002	
-1.14191347E+000	-1.17725502E+002	
-1.12120017E+000	-1.17707060E+002	
-1.10048686E+000	-1.17679456E+002	
-1.07977356E+000	-1.17687434E+002	
-1.05906025E+000	-1.17704628E+002	
-1.03834694E+000	-1.17673481E+002	
-1.01763364E+000	-1.17630475E+002	
-9.96920334E-001	-1.17591636E+002	
-9.76207029E-001	-1.17579464E+002	
-9.55493724E-001	-1.17595943E+002	
-9.34780418E-001	-1.17617992E+002	
-9.14067113E-001	-1.17692222E+002	
-8.93353808E-001	-1.17685091E+002	
-8.72640502E-001	-1.17669778E+002	
-8.51927197E-001	-1.17707093E+002	
-8.31213892E-001	-1.17732122E+002	
-8.10500586E-001	-1.17781830E+002	
-7.89787281E-001	-1.17797683E+002	
-7.69073976E-001	-1.17807462E+002	
-7.48360671E-001	-1.17789632E+002	
-7.27647365E-001	-1.17780633E+002	
-7.06934060E-001	-1.17826644E+002	
-6.86220755E-001	-1.17846706E+002	
-6.65507449E-001	-1.17873139E+002	
-6.44794144E-001	-1.17876332E+002	
-6.24080839E-001	-1.17850228E+002	
-6.03367533E-001	-1.17845998E+002	
-5.82654228E-001	-1.17822579E+002	
-5.61940923E-001	-1.17767974E+002	
-5.41227617E-001	-1.17740609E+002	
-5.20514312E-001	-1.17751911E+002	
-4.99801007E-001	-1.17826350E+002	
-4.79087701E-001	-1.17879429E+002	
-4.58374396E-001	-1.17894881E+002	
-4.37661091E-001	-1.17853303E+002	
-4.16947785E-001	-1.17794523E+002	
-3.96234480E-001	-1.17787637E+002	
-3.75521175E-001	-1.17805084E+002	
-3.54807869E-001	-1.17805564E+002	
-3.34094564E-001	-1.17819528E+002	
-3.13381259E-001	-1.17848095E+002	
-2.92667954E-001	-1.17843382E+002	
-2.71954648E-001	-1.17806856E+002	
-2.51241343E-001	-1.06181971E+002	
-2.30528038E-001	-1.06030315E+002	
-2.09814732E-001	-1.06028502E+002	
-1.89101427E-001	-1.06022058E+002	
-1.68388122E-001	-1.06013901E+002	
-1.47674816E-001	-1.06010338E+002	
-1.26961511E-001	-1.06009213E+002	
-1.06248206E-001	-1.06001980E+002	
-8.55349003E-002	-1.05999769E+002	
-6.48215950E-002	-1.05998339E+002	
-4.41082897E-002	-1.06000144E+002	
-2.33949844E-002	-1.05998843E+002	
-2.68167905E-003	-1.05997050E+002	
1.80316263E-002	-1.05990308E+002	
3.87449316E-002	-1.05986822E+002	
5.94582369E-002	-1.05987355E+002	
8.01715422E-002	-1.05990285E+002	
1.00884848E-001	-1.05989277E+002	
1.21598153E-001	-1.05983277E+002	
1.42311458E-001	-1.05980873E+002	
1.63024763E-001	-1.05979520E+002	
1.83738069E-001	-1.05975244E+002	
2.04451374E-001	-1.05969993E+002	
2.25164679E-001	-1.05970968E+002	
2.45877985E-001	-1.12006963E+002	
2.66591290E-001	-1.16996870E+002	
2.87304595E-001	-1.16997599E+002	
3.08017901E-001	-1.17052598E+002	
3.28731206E-001	-1.17105790E+002	
3.49444511E-001	-1.17112211E+002	
3.70157817E-001	-1.17148302E+002	
3.90871122E-001	-1.17219352E+002	
4.11584427E-001	-1.17190110E+002	
4.32297733E-001	-1.17161110E+002	
4.53011038E-001	-1.17152877E+002	
4.73724343E-001	-1.17167441E+002	
4.94437649E-001	-1.17162925E+002	
5.15150954E-001	-1.17203975E+002	
5.35864259E-001	-1.17208973E+002	
5.56577565E-001	-1.17251663E+002	
5.77290870E-001	-1.17200377E+002	
5.98004175E-001	-1.17169687E+002	
6.18717481E-001	-1.17217041E+002	
6.39430786E-001	-1.17221093E+002	
6.60144091E-001	-1.17207227E+002	
6.80857396E-001	-1.17243710E+002	
7.01570702E-001	-1.17270828E+002	
7.22284007E-001	-1.17269912E+002	
7.42997312E-001	-1.17246851E+002	
7.63710618E-001	-1.17240641E+002	
7.84423923E-001	-1.17211113E+002	
8.05137228E-001	-1.17197106E+002	
8.25850534E-001	-1.17174121E+002	
8.46563839E-001	-1.17149918E+002	
8.67277144E-001	-1.17135753E+002	
8.87990450E-001	-1.17130689E+002	
9.08703755E-001	-1.17226371E+002	
9.29417060E-001	-1.17289783E+002	
9.50130366E-001	-1.17321208E+002	
9.70843671E-001	-1.17277374E+002	
9.91556976E-001	-1.17267182E+002	
1.01227028E+000	-1.17292597E+002	
1.03298359E+000	-1.17291207E+002	
1.05369689E+000	-1.17257398E+002	
1.07441020E+000	-1.17273742E+002	
1.09512350E+000	-1.17291840E+002	
1.11583681E+000	-1.17352493E+002	
1.13655011E+000	-1.17355010E+002	
1.15726342E+000	-1.17352679E+002	
1.17797672E+000	-1.17320310E+002	
1.19869003E+000	-1.17369076E+002	
1.21940333E+000	-1.17350471E+002	
1.24011664E+000	-1.17363618E+002	
1.26082995E+000	-1.17353673E+002	
1.28154325E+000	-1.17364980E+002	
1.30225656E+000	-1.17369267E+002	
1.32296986E+000	-1.17371693E+002	
1.34368317E+000	-1.17400359E+002	
1.36439647E+000	-1.17460374E+002	
1.38510978E+000	-1.17461319E+002	
1.40582308E+000	-1.17392912E+002	
1.42653639E+000	-1.17393816E+002	
1.44724969E+000	-1.17370231E+002	
1.46796300E+000	-1.17385132E+002	
1.48867630E+000	-1.17409913E+002	
1.50938961E+000	-1.17393823E+002	
1.53010291E+000	-1.17395372E+002	
1.55081622E+000	-1.17386133E+002	
1.57152953E+000	-1.17383558E+002	
