Acquired on 4/26/2021 at 16:36:12
Calibrated on 4/26/2021 at 14:40:00
Device Descriptor:  [none]
Scan Range (nm):  1539.624  --  1560.517
Measurement Type:  Reflection
Group Index:  1.500
Gain:  24 dB
Domain:  Time
Spatial Resolution (mm):  50.000000
Frequency domain window was applied to measurement data.
Number of Data Points (in this file):  16384
NOTE: Data stored in this file is decimated by a factor of 64.

Time (ns)	Amplitude (dB)	
-1.00072081E+001	-1.20272724E+002	
-9.98649484E+000	-1.19945069E+002	
-9.96578154E+000	-1.19620121E+002	
-9.94506823E+000	-1.19363651E+002	
-9.92435493E+000	-1.19134722E+002	
-9.90364162E+000	-1.18902238E+002	
-9.88292832E+000	-1.18686314E+002	
-9.86221501E+000	-1.18464037E+002	
-9.84150171E+000	-1.18273382E+002	
-9.82078840E+000	-1.18093947E+002	
-9.80007509E+000	-1.17888370E+002	
-9.77936179E+000	-1.17703090E+002	
-9.75864848E+000	-1.17651921E+002	
-9.73793518E+000	-1.17684330E+002	
-9.71722187E+000	-1.17681162E+002	
-9.69650857E+000	-1.17687473E+002	
-9.67579526E+000	-1.17754898E+002	
-9.65508196E+000	-1.17740703E+002	
-9.63436865E+000	-1.17684547E+002	
-9.61365535E+000	-1.17682435E+002	
-9.59294204E+000	-1.17690626E+002	
-9.57222874E+000	-1.17725669E+002	
-9.55151543E+000	-1.17748414E+002	
-9.53080213E+000	-1.17726918E+002	
-9.51008882E+000	-1.17756624E+002	
-9.48937552E+000	-1.17777547E+002	
-9.46866221E+000	-1.17765586E+002	
-9.44794890E+000	-1.17738291E+002	
-9.42723560E+000	-1.17691138E+002	
-9.40652229E+000	-1.17679361E+002	
-9.38580899E+000	-1.17651153E+002	
-9.36509568E+000	-1.17647241E+002	
-9.34438238E+000	-1.17598715E+002	
-9.32366907E+000	-1.17570236E+002	
-9.30295577E+000	-1.17576900E+002	
-9.28224246E+000	-1.17580352E+002	
-9.26152916E+000	-1.17531655E+002	
-9.24081585E+000	-1.17469093E+002	
-9.22010255E+000	-1.17450897E+002	
-9.19938924E+000	-1.17488019E+002	
-9.17867594E+000	-1.17468948E+002	
-9.15796263E+000	-1.17456724E+002	
-9.13724932E+000	-1.17518929E+002	
-9.11653602E+000	-1.17531839E+002	
-9.09582271E+000	-1.17518157E+002	
-9.07510941E+000	-1.17511742E+002	
-9.05439610E+000	-1.17503446E+002	
-9.03368280E+000	-1.17387221E+002	
-9.01296949E+000	-1.17375350E+002	
-8.99225619E+000	-1.17377841E+002	
-8.97154288E+000	-1.17422749E+002	
-8.95082958E+000	-1.17436241E+002	
-8.93011627E+000	-1.17458845E+002	
-8.90940297E+000	-1.17480419E+002	
-8.88868966E+000	-1.17500779E+002	
-8.86797636E+000	-1.17490781E+002	
-8.84726305E+000	-1.17501918E+002	
-8.82654974E+000	-1.17483520E+002	
-8.80583644E+000	-1.17502423E+002	
-8.78512313E+000	-1.17500103E+002	
-8.76440983E+000	-1.17500962E+002	
-8.74369652E+000	-1.17561744E+002	
-8.72298322E+000	-1.17584117E+002	
-8.70226991E+000	-1.17514857E+002	
-8.68155661E+000	-1.17485306E+002	
-8.66084330E+000	-1.17517822E+002	
-8.64013000E+000	-1.17474906E+002	
-8.61941669E+000	-1.17426258E+002	
-8.59870339E+000	-1.17443449E+002	
-8.57799008E+000	-1.17442972E+002	
-8.55727678E+000	-1.17415780E+002	
-8.53656347E+000	-1.17532598E+002	
-8.51585017E+000	-1.17541564E+002	
-8.49513686E+000	-1.17534880E+002	
-8.47442355E+000	-1.17520217E+002	
-8.45371025E+000	-1.17538538E+002	
-8.43299694E+000	-1.17569099E+002	
-8.41228364E+000	-1.17540988E+002	
-8.39157033E+000	-1.17531013E+002	
-8.37085703E+000	-1.17575439E+002	
-8.35014372E+000	-1.17589308E+002	
-8.32943042E+000	-1.17621516E+002	
-8.30871711E+000	-1.17570874E+002	
-8.28800381E+000	-1.17598568E+002	
-8.26729050E+000	-1.17602803E+002	
-8.24657720E+000	-1.17598835E+002	
-8.22586389E+000	-1.17571696E+002	
-8.20515059E+000	-1.17626533E+002	
-8.18443728E+000	-1.17633867E+002	
-8.16372397E+000	-1.17612976E+002	
-8.14301067E+000	-1.17579089E+002	
-8.12229736E+000	-1.17592017E+002	
-8.10158406E+000	-1.17592469E+002	
-8.08087075E+000	-1.17591188E+002	
-8.06015745E+000	-1.17568983E+002	
-8.03944414E+000	-1.17516958E+002	
-8.01873084E+000	-1.17537850E+002	
-7.99801753E+000	-1.17537905E+002	
-7.97730423E+000	-1.17530363E+002	
-7.95659092E+000	-1.17500442E+002	
-7.93587762E+000	-1.17517863E+002	
-7.91516431E+000	-1.17548479E+002	
-7.89445101E+000	-1.17535877E+002	
-7.87373770E+000	-1.17511236E+002	
-7.85302439E+000	-1.17512503E+002	
-7.83231109E+000	-1.17488488E+002	
-7.81159778E+000	-1.17527618E+002	
-7.79088448E+000	-1.17551437E+002	
-7.77017117E+000	-1.17566288E+002	
-7.74945787E+000	-1.17573281E+002	
-7.72874456E+000	-1.17594210E+002	
-7.70803126E+000	-1.17555505E+002	
-7.68731795E+000	-1.17580651E+002	
-7.66660465E+000	-1.17580511E+002	
-7.64589134E+000	-1.17587080E+002	
-7.62517804E+000	-1.17593692E+002	
-7.60446473E+000	-1.17523009E+002	
-7.58375143E+000	-1.17540240E+002	
-7.56303812E+000	-1.17580013E+002	
-7.54232482E+000	-1.17647185E+002	
-7.52161151E+000	-1.17632129E+002	
-7.50089820E+000	-1.17646796E+002	
-7.48018490E+000	-1.17633274E+002	
-7.45947159E+000	-1.17680515E+002	
-7.43875829E+000	-1.17612943E+002	
-7.41804498E+000	-1.17539596E+002	
-7.39733168E+000	-1.17575366E+002	
-7.37661837E+000	-1.17571713E+002	
-7.35590507E+000	-1.17578113E+002	
-7.33519176E+000	-1.17607102E+002	
-7.31447846E+000	-1.17637898E+002	
-7.29376515E+000	-1.17622133E+002	
-7.27305185E+000	-1.17596861E+002	
-7.25233854E+000	-1.17627451E+002	
-7.23162524E+000	-1.17628650E+002	
-7.21091193E+000	-1.17616701E+002	
-7.19019862E+000	-1.17606742E+002	
-7.16948532E+000	-1.17648918E+002	
-7.14877201E+000	-1.17711531E+002	
-7.12805871E+000	-1.17750936E+002	
-7.10734540E+000	-1.17826972E+002	
-7.08663210E+000	-1.17867599E+002	
-7.06591879E+000	-1.17841785E+002	
-7.04520549E+000	-1.17832154E+002	
-7.02449218E+000	-1.17819616E+002	
-7.00377888E+000	-1.17789882E+002	
-6.98306557E+000	-1.17818971E+002	
-6.96235227E+000	-1.17779718E+002	
-6.94163896E+000	-1.17813323E+002	
-6.92092566E+000	-1.17873566E+002	
-6.90021235E+000	-1.17884946E+002	
-6.87949904E+000	-1.17868589E+002	
-6.85878574E+000	-1.17850204E+002	
-6.83807243E+000	-1.17868555E+002	
-6.81735913E+000	-1.17880140E+002	
-6.79664582E+000	-1.17831788E+002	
-6.77593252E+000	-1.17861066E+002	
-6.75521921E+000	-1.17810228E+002	
-6.73450591E+000	-1.17807750E+002	
-6.71379260E+000	-1.17799288E+002	
-6.69307930E+000	-1.17797896E+002	
-6.67236599E+000	-1.17757191E+002	
-6.65165269E+000	-1.17741137E+002	
-6.63093938E+000	-1.17751343E+002	
-6.61022608E+000	-1.17766111E+002	
-6.58951277E+000	-1.17756121E+002	
-6.56879947E+000	-1.17738957E+002	
-6.54808616E+000	-1.17701438E+002	
-6.52737285E+000	-1.17681875E+002	
-6.50665955E+000	-1.17710984E+002	
-6.48594624E+000	-1.17751881E+002	
-6.46523294E+000	-1.17784877E+002	
-6.44451963E+000	-1.17718727E+002	
-6.42380633E+000	-1.17670692E+002	
-6.40309302E+000	-1.17652317E+002	
-6.38237972E+000	-1.17625612E+002	
-6.36166641E+000	-1.17628837E+002	
-6.34095311E+000	-1.17631591E+002	
-6.32023980E+000	-1.17622769E+002	
-6.29952650E+000	-1.17638952E+002	
-6.27881319E+000	-1.17608787E+002	
-6.25809989E+000	-1.17629336E+002	
-6.23738658E+000	-1.17625041E+002	
-6.21667327E+000	-1.17601440E+002	
-6.19595997E+000	-1.17603670E+002	
-6.17524666E+000	-1.17592714E+002	
-6.15453336E+000	-1.17594606E+002	
-6.13382005E+000	-1.17576443E+002	
-6.11310675E+000	-1.17578648E+002	
-6.09239344E+000	-1.17578922E+002	
-6.07168014E+000	-1.17535499E+002	
-6.05096683E+000	-1.17608558E+002	
-6.03025353E+000	-1.17613533E+002	
-6.00954022E+000	-1.17580601E+002	
-5.98882692E+000	-1.17529160E+002	
-5.96811361E+000	-1.17536613E+002	
-5.94740031E+000	-1.17581224E+002	
-5.92668700E+000	-1.17628747E+002	
-5.90597369E+000	-1.17645087E+002	
-5.88526039E+000	-1.17694225E+002	
-5.86454708E+000	-1.17721869E+002	
-5.84383378E+000	-1.17686763E+002	
-5.82312047E+000	-1.17692213E+002	
-5.80240717E+000	-1.17657803E+002	
-5.78169386E+000	-1.17676835E+002	
-5.76098056E+000	-1.17676679E+002	
-5.74026725E+000	-1.17666643E+002	
-5.71955395E+000	-1.17697560E+002	
-5.69884064E+000	-1.17703585E+002	
-5.67812734E+000	-1.17726305E+002	
-5.65741403E+000	-1.17719855E+002	
-5.63670073E+000	-1.17726132E+002	
-5.61598742E+000	-1.17706577E+002	
-5.59527412E+000	-1.17668107E+002	
-5.57456081E+000	-1.17731400E+002	
-5.55384750E+000	-1.17656877E+002	
-5.53313420E+000	-1.17590366E+002	
-5.51242089E+000	-1.17609206E+002	
-5.49170759E+000	-1.17617352E+002	
-5.47099428E+000	-1.17598745E+002	
-5.45028098E+000	-1.17645504E+002	
-5.42956767E+000	-1.17687890E+002	
-5.40885437E+000	-1.17671455E+002	
-5.38814106E+000	-1.17665624E+002	
-5.36742776E+000	-1.17635754E+002	
-5.34671445E+000	-1.17665544E+002	
-5.32600115E+000	-1.17671633E+002	
-5.30528784E+000	-1.17692570E+002	
-5.28457454E+000	-1.17672180E+002	
-5.26386123E+000	-1.17654432E+002	
-5.24314792E+000	-1.17602041E+002	
-5.22243462E+000	-1.17583151E+002	
-5.20172131E+000	-1.17587106E+002	
-5.18100801E+000	-1.17557282E+002	
-5.16029470E+000	-1.17549786E+002	
-5.13958140E+000	-1.17505091E+002	
-5.11886809E+000	-1.17482294E+002	
-5.09815479E+000	-1.17493898E+002	
-5.07744148E+000	-1.17452754E+002	
-5.05672818E+000	-1.17523510E+002	
-5.03601487E+000	-1.17546394E+002	
-5.01530157E+000	-1.17585726E+002	
-4.99458826E+000	-1.17587253E+002	
-4.97387496E+000	-1.17530560E+002	
-4.95316165E+000	-1.17527955E+002	
-4.93244834E+000	-1.17482267E+002	
-4.91173504E+000	-1.17469077E+002	
-4.89102173E+000	-1.17455999E+002	
-4.87030843E+000	-1.17482979E+002	
-4.84959512E+000	-1.17468597E+002	
-4.82888182E+000	-1.17433567E+002	
-4.80816851E+000	-1.17421225E+002	
-4.78745521E+000	-1.17432452E+002	
-4.76674190E+000	-1.17453072E+002	
-4.74602860E+000	-1.17468180E+002	
-4.72531529E+000	-1.17522120E+002	
-4.70460199E+000	-1.17510318E+002	
-4.68388868E+000	-1.17543442E+002	
-4.66317538E+000	-1.17531556E+002	
-4.64246207E+000	-1.17581264E+002	
-4.62174877E+000	-1.17627386E+002	
-4.60103546E+000	-1.17649363E+002	
-4.58032215E+000	-1.17673400E+002	
-4.55960885E+000	-1.17635202E+002	
-4.53889554E+000	-1.17672984E+002	
-4.51818224E+000	-1.17598137E+002	
-4.49746893E+000	-1.17552632E+002	
-4.47675563E+000	-1.17599532E+002	
-4.45604232E+000	-1.17582519E+002	
-4.43532902E+000	-1.17585717E+002	
-4.41461571E+000	-1.17580970E+002	
-4.39390241E+000	-1.17591476E+002	
-4.37318910E+000	-1.17599600E+002	
-4.35247580E+000	-1.17584350E+002	
-4.33176249E+000	-1.17573394E+002	
-4.31104919E+000	-1.17569234E+002	
-4.29033588E+000	-1.17558954E+002	
-4.26962257E+000	-1.17552716E+002	
-4.24890927E+000	-1.17597905E+002	
-4.22819596E+000	-1.17602421E+002	
-4.20748266E+000	-1.17639418E+002	
-4.18676935E+000	-1.17606287E+002	
-4.16605605E+000	-1.17619520E+002	
-4.14534274E+000	-1.17627659E+002	
-4.12462944E+000	-1.17586810E+002	
-4.10391613E+000	-1.17587588E+002	
-4.08320283E+000	-1.17578152E+002	
-4.06248952E+000	-1.17573756E+002	
-4.04177622E+000	-1.17531513E+002	
-4.02106291E+000	-1.17568243E+002	
-4.00034961E+000	-1.17574254E+002	
-3.97963630E+000	-1.17533262E+002	
-3.95892299E+000	-1.17545128E+002	
-3.93820969E+000	-1.17515035E+002	
-3.91749638E+000	-1.17529754E+002	
-3.89678308E+000	-1.17507694E+002	
-3.87606977E+000	-1.17449826E+002	
-3.85535647E+000	-1.17454528E+002	
-3.83464316E+000	-1.17447627E+002	
-3.81392986E+000	-1.17446405E+002	
-3.79321655E+000	-1.17474577E+002	
-3.77250325E+000	-1.17424784E+002	
-3.75178994E+000	-1.17438426E+002	
-3.73107664E+000	-1.17443201E+002	
-3.71036333E+000	-1.17381912E+002	
-3.68965003E+000	-1.17393214E+002	
-3.66893672E+000	-1.17440885E+002	
-3.64822342E+000	-1.17405902E+002	
-3.62751011E+000	-1.17423027E+002	
-3.60679680E+000	-1.17422760E+002	
-3.58608350E+000	-1.17424346E+002	
-3.56537019E+000	-1.17451556E+002	
-3.54465689E+000	-1.17455807E+002	
-3.52394358E+000	-1.17479219E+002	
-3.50323028E+000	-1.17523707E+002	
-3.48251697E+000	-1.17561402E+002	
-3.46180367E+000	-1.17596558E+002	
-3.44109036E+000	-1.17615033E+002	
-3.42037706E+000	-1.17645360E+002	
-3.39966375E+000	-1.17688247E+002	
-3.37895045E+000	-1.17731368E+002	
-3.35823714E+000	-1.17726374E+002	
-3.33752384E+000	-1.17731494E+002	
-3.31681053E+000	-1.17736083E+002	
-3.29609722E+000	-1.17715027E+002	
-3.27538392E+000	-1.17737802E+002	
-3.25467061E+000	-1.17751244E+002	
-3.23395731E+000	-1.17746573E+002	
-3.21324400E+000	-1.17776946E+002	
-3.19253070E+000	-1.17783727E+002	
-3.17181739E+000	-1.17750088E+002	
-3.15110409E+000	-1.17732559E+002	
-3.13039078E+000	-1.17729290E+002	
-3.10967748E+000	-1.17768469E+002	
-3.08896417E+000	-1.17744859E+002	
-3.06825087E+000	-1.17728127E+002	
-3.04753756E+000	-1.17759997E+002	
-3.02682426E+000	-1.17742870E+002	
-3.00611095E+000	-1.17669819E+002	
-2.98539764E+000	-1.17711801E+002	
-2.96468434E+000	-1.17673097E+002	
-2.94397103E+000	-1.17655420E+002	
-2.92325773E+000	-1.17613274E+002	
-2.90254442E+000	-1.17595840E+002	
-2.88183112E+000	-1.17614542E+002	
-2.86111781E+000	-1.17656726E+002	
-2.84040451E+000	-1.17695554E+002	
-2.81969120E+000	-1.17728098E+002	
-2.79897790E+000	-1.17797840E+002	
-2.77826459E+000	-1.17772500E+002	
-2.75755129E+000	-1.17744324E+002	
-2.73683798E+000	-1.17750912E+002	
-2.71612468E+000	-1.17695777E+002	
-2.69541137E+000	-1.17683437E+002	
-2.67469807E+000	-1.17751652E+002	
-2.65398476E+000	-1.17781138E+002	
-2.63327145E+000	-1.17775235E+002	
-2.61255815E+000	-1.17717855E+002	
-2.59184484E+000	-1.17725710E+002	
-2.57113154E+000	-1.17723887E+002	
-2.55041823E+000	-1.17709369E+002	
-2.52970493E+000	-1.17759711E+002	
-2.50899162E+000	-1.17829324E+002	
-2.48827832E+000	-1.17824878E+002	
-2.46756501E+000	-1.17837303E+002	
-2.44685171E+000	-1.17836332E+002	
-2.42613840E+000	-1.17867299E+002	
-2.40542510E+000	-1.17888722E+002	
-2.38471179E+000	-1.17876089E+002	
-2.36399849E+000	-1.17859363E+002	
-2.34328518E+000	-1.17810935E+002	
-2.32257187E+000	-1.17771510E+002	
-2.30185857E+000	-1.17703764E+002	
-2.28114526E+000	-1.17709896E+002	
-2.26043196E+000	-1.17781763E+002	
-2.23971865E+000	-1.17759354E+002	
-2.21900535E+000	-1.17812219E+002	
-2.19829204E+000	-1.17840469E+002	
-2.17757874E+000	-1.17797246E+002	
-2.15686543E+000	-1.17774665E+002	
-2.13615213E+000	-1.17818182E+002	
-2.11543882E+000	-1.17831981E+002	
-2.09472552E+000	-1.17855868E+002	
-2.07401221E+000	-1.17835067E+002	
-2.05329891E+000	-1.17795747E+002	
-2.03258560E+000	-1.17808696E+002	
-2.01187229E+000	-1.17805908E+002	
-1.99115899E+000	-1.17795725E+002	
-1.97044568E+000	-1.17734015E+002	
-1.94973238E+000	-1.17741115E+002	
-1.92901907E+000	-1.17716718E+002	
-1.90830577E+000	-1.17668931E+002	
-1.88759246E+000	-1.17660872E+002	
-1.86687916E+000	-1.17680435E+002	
-1.84616585E+000	-1.17651592E+002	
-1.82545255E+000	-1.17725124E+002	
-1.80473924E+000	-1.17725093E+002	
-1.78402594E+000	-1.17754258E+002	
-1.76331263E+000	-1.17753369E+002	
-1.74259933E+000	-1.17717652E+002	
-1.72188602E+000	-1.17715240E+002	
-1.70117272E+000	-1.17774668E+002	
-1.68045941E+000	-1.17794447E+002	
-1.65974610E+000	-1.17751217E+002	
-1.63903280E+000	-1.17717929E+002	
-1.61831949E+000	-1.17764082E+002	
-1.59760619E+000	-1.17766275E+002	
-1.57689288E+000	-1.17777732E+002	
-1.55617958E+000	-1.17841764E+002	
-1.53546627E+000	-1.17830695E+002	
-1.51475297E+000	-1.17824241E+002	
-1.49403966E+000	-1.17786268E+002	
-1.47332636E+000	-1.17815998E+002	
-1.45261305E+000	-1.17785077E+002	
-1.43189975E+000	-1.17790778E+002	
-1.41118644E+000	-1.17777384E+002	
-1.39047314E+000	-1.17792055E+002	
-1.36975983E+000	-1.17761655E+002	
-1.34904652E+000	-1.17760916E+002	
-1.32833322E+000	-1.17717392E+002	
-1.30761991E+000	-1.17682099E+002	
-1.28690661E+000	-1.17685000E+002	
-1.26619330E+000	-1.17671745E+002	
-1.24548000E+000	-1.17712423E+002	
-1.22476669E+000	-1.17749115E+002	
-1.20405339E+000	-1.17649916E+002	
-1.18334008E+000	-1.17647005E+002	
-1.16262678E+000	-1.17717299E+002	
-1.14191347E+000	-1.17738628E+002	
-1.12120017E+000	-1.17725718E+002	
-1.10048686E+000	-1.17703792E+002	
-1.07977356E+000	-1.17706026E+002	
-1.05906025E+000	-1.17725611E+002	
-1.03834694E+000	-1.17702786E+002	
-1.01763364E+000	-1.17651273E+002	
-9.96920334E-001	-1.17614284E+002	
-9.76207029E-001	-1.17599566E+002	
-9.55493724E-001	-1.17612706E+002	
-9.34780418E-001	-1.17630175E+002	
-9.14067113E-001	-1.17688501E+002	
-8.93353808E-001	-1.17687467E+002	
-8.72640502E-001	-1.17669460E+002	
-8.51927197E-001	-1.17709113E+002	
-8.31213892E-001	-1.17736780E+002	
-8.10500586E-001	-1.17784539E+002	
-7.89787281E-001	-1.17798032E+002	
-7.69073976E-001	-1.17813787E+002	
-7.48360671E-001	-1.17794132E+002	
-7.27647365E-001	-1.17782779E+002	
-7.06934060E-001	-1.17825539E+002	
-6.86220755E-001	-1.17844786E+002	
-6.65507449E-001	-1.17868602E+002	
-6.44794144E-001	-1.17867413E+002	
-6.24080839E-001	-1.17835297E+002	
-6.03367533E-001	-1.17822612E+002	
-5.82654228E-001	-1.17798365E+002	
-5.61940923E-001	-1.17745982E+002	
-5.41227617E-001	-1.17708855E+002	
-5.20514312E-001	-1.17724364E+002	
-4.99801007E-001	-1.17794458E+002	
-4.79087701E-001	-1.17855403E+002	
-4.58374396E-001	-1.17879730E+002	
-4.37661091E-001	-1.17841151E+002	
-4.16947785E-001	-1.17796472E+002	
-3.96234480E-001	-1.17784064E+002	
-3.75521175E-001	-1.17795043E+002	
-3.54807869E-001	-1.17796537E+002	
-3.34094564E-001	-1.17801438E+002	
-3.13381259E-001	-1.17827987E+002	
-2.92667954E-001	-1.17830641E+002	
-2.71954648E-001	-1.17792628E+002	
-2.51241343E-001	-1.13394590E+002	
-2.30528038E-001	-1.13140259E+002	
-2.09814732E-001	-1.13132588E+002	
-1.89101427E-001	-1.13101477E+002	
-1.68388122E-001	-1.13060496E+002	
-1.47674816E-001	-1.13043948E+002	
-1.26961511E-001	-1.13040135E+002	
-1.06248206E-001	-1.13004238E+002	
-8.55349003E-002	-1.12994644E+002	
-6.48215950E-002	-1.12988284E+002	
-4.41082897E-002	-1.12997172E+002	
-2.33949844E-002	-1.12987879E+002	
-2.68167905E-003	-1.12983254E+002	
1.80316263E-002	-1.12951964E+002	
3.87449316E-002	-1.12936499E+002	
5.94582369E-002	-1.12940498E+002	
8.01715422E-002	-1.12952455E+002	
1.00884848E-001	-1.12948222E+002	
1.21598153E-001	-1.12919172E+002	
1.42311458E-001	-1.12904114E+002	
1.63024763E-001	-1.12897170E+002	
1.83738069E-001	-1.12876195E+002	
2.04451374E-001	-1.12849331E+002	
2.25164679E-001	-1.12855123E+002	
2.45877985E-001	-1.15631992E+002	
2.66591290E-001	-1.17013445E+002	
2.87304595E-001	-1.17015750E+002	
3.08017901E-001	-1.17069068E+002	
3.28731206E-001	-1.17124681E+002	
3.49444511E-001	-1.17136526E+002	
3.70157817E-001	-1.17173403E+002	
3.90871122E-001	-1.17253250E+002	
4.11584427E-001	-1.17228699E+002	
4.32297733E-001	-1.17212074E+002	
4.53011038E-001	-1.17205019E+002	
4.73724343E-001	-1.17224915E+002	
4.94437649E-001	-1.17219008E+002	
5.15150954E-001	-1.17257202E+002	
5.35864259E-001	-1.17257942E+002	
5.56577565E-001	-1.17294063E+002	
5.77290870E-001	-1.17241970E+002	
5.98004175E-001	-1.17217384E+002	
6.18717481E-001	-1.17269745E+002	
6.39430786E-001	-1.17279397E+002	
6.60144091E-001	-1.17261024E+002	
6.80857396E-001	-1.17296439E+002	
7.01570702E-001	-1.17320445E+002	
7.22284007E-001	-1.17328431E+002	
7.42997312E-001	-1.17302496E+002	
7.63710618E-001	-1.17303347E+002	
7.84423923E-001	-1.17278733E+002	
8.05137228E-001	-1.17260980E+002	
8.25850534E-001	-1.17236417E+002	
8.46563839E-001	-1.17203351E+002	
8.67277144E-001	-1.17181475E+002	
8.87990450E-001	-1.17161156E+002	
9.08703755E-001	-1.17250440E+002	
9.29417060E-001	-1.17299519E+002	
9.50130366E-001	-1.17322183E+002	
9.70843671E-001	-1.17277131E+002	
9.91556976E-001	-1.17257902E+002	
1.01227028E+000	-1.17281834E+002	
1.03298359E+000	-1.17280712E+002	
1.05369689E+000	-1.17252061E+002	
1.07441020E+000	-1.17272267E+002	
1.09512350E+000	-1.17286673E+002	
1.11583681E+000	-1.17339016E+002	
1.13655011E+000	-1.17346147E+002	
1.15726342E+000	-1.17348800E+002	
1.17797672E+000	-1.17320631E+002	
1.19869003E+000	-1.17368624E+002	
1.21940333E+000	-1.17344906E+002	
1.24011664E+000	-1.17357760E+002	
1.26082995E+000	-1.17346672E+002	
1.28154325E+000	-1.17354193E+002	
1.30225656E+000	-1.17361304E+002	
1.32296986E+000	-1.17359688E+002	
1.34368317E+000	-1.17391978E+002	
1.36439647E+000	-1.17457496E+002	
1.38510978E+000	-1.17467774E+002	
1.40582308E+000	-1.17399327E+002	
1.42653639E+000	-1.17404379E+002	
1.44724969E+000	-1.17391815E+002	
1.46796300E+000	-1.17399197E+002	
1.48867630E+000	-1.17434971E+002	
1.50938961E+000	-1.17416782E+002	
1.53010291E+000	-1.17416090E+002	
1.55081622E+000	-1.17398563E+002	
1.57152953E+000	-1.17389020E+002	
