Acquired on 4/26/2021 at 16:12:10
Calibrated on 4/26/2021 at 14:40:00
Device Descriptor:  [none]
Scan Range (nm):  1539.624  --  1560.517
Measurement Type:  Reflection
Group Index:  1.500
Gain:  24 dB
Domain:  Time
Spatial Resolution (mm):  50.000000
Frequency domain window was applied to measurement data.
Number of Data Points (in this file):  16384
NOTE: Data stored in this file is decimated by a factor of 64.

Time (ns)	Amplitude (dB)	
-1.00072081E+001	-1.20294735E+002	
-9.98649484E+000	-1.19967344E+002	
-9.96578154E+000	-1.19634427E+002	
-9.94506823E+000	-1.19377573E+002	
-9.92435493E+000	-1.19147270E+002	
-9.90364162E+000	-1.18914506E+002	
-9.88292832E+000	-1.18697357E+002	
-9.86221501E+000	-1.18483511E+002	
-9.84150171E+000	-1.18290414E+002	
-9.82078840E+000	-1.18108641E+002	
-9.80007509E+000	-1.17900699E+002	
-9.77936179E+000	-1.17708396E+002	
-9.75864848E+000	-1.17654923E+002	
-9.73793518E+000	-1.17685783E+002	
-9.71722187E+000	-1.17680427E+002	
-9.69650857E+000	-1.17685310E+002	
-9.67579526E+000	-1.17753121E+002	
-9.65508196E+000	-1.17741306E+002	
-9.63436865E+000	-1.17688042E+002	
-9.61365535E+000	-1.17688125E+002	
-9.59294204E+000	-1.17701679E+002	
-9.57222874E+000	-1.17741895E+002	
-9.55151543E+000	-1.17763913E+002	
-9.53080213E+000	-1.17744820E+002	
-9.51008882E+000	-1.17774052E+002	
-9.48937552E+000	-1.17789125E+002	
-9.46866221E+000	-1.17776105E+002	
-9.44794890E+000	-1.17750889E+002	
-9.42723560E+000	-1.17702994E+002	
-9.40652229E+000	-1.17687335E+002	
-9.38580899E+000	-1.17651313E+002	
-9.36509568E+000	-1.17640331E+002	
-9.34438238E+000	-1.17596017E+002	
-9.32366907E+000	-1.17571428E+002	
-9.30295577E+000	-1.17578587E+002	
-9.28224246E+000	-1.17587117E+002	
-9.26152916E+000	-1.17535036E+002	
-9.24081585E+000	-1.17470427E+002	
-9.22010255E+000	-1.17448802E+002	
-9.19938924E+000	-1.17481072E+002	
-9.17867594E+000	-1.17458571E+002	
-9.15796263E+000	-1.17440637E+002	
-9.13724932E+000	-1.17501893E+002	
-9.11653602E+000	-1.17509724E+002	
-9.09582271E+000	-1.17491414E+002	
-9.07510941E+000	-1.17486349E+002	
-9.05439610E+000	-1.17478298E+002	
-9.03368280E+000	-1.17369643E+002	
-9.01296949E+000	-1.17354662E+002	
-8.99225619E+000	-1.17354684E+002	
-8.97154288E+000	-1.17401094E+002	
-8.95082958E+000	-1.17411728E+002	
-8.93011627E+000	-1.17435847E+002	
-8.90940297E+000	-1.17468162E+002	
-8.88868966E+000	-1.17496006E+002	
-8.86797636E+000	-1.17484398E+002	
-8.84726305E+000	-1.17495788E+002	
-8.82654974E+000	-1.17473421E+002	
-8.80583644E+000	-1.17493477E+002	
-8.78512313E+000	-1.17487912E+002	
-8.76440983E+000	-1.17493689E+002	
-8.74369652E+000	-1.17556188E+002	
-8.72298322E+000	-1.17574825E+002	
-8.70226991E+000	-1.17512499E+002	
-8.68155661E+000	-1.17490881E+002	
-8.66084330E+000	-1.17525591E+002	
-8.64013000E+000	-1.17484116E+002	
-8.61941669E+000	-1.17433917E+002	
-8.59870339E+000	-1.17450668E+002	
-8.57799008E+000	-1.17446065E+002	
-8.55727678E+000	-1.17411391E+002	
-8.53656347E+000	-1.17517686E+002	
-8.51585017E+000	-1.17525833E+002	
-8.49513686E+000	-1.17525435E+002	
-8.47442355E+000	-1.17515392E+002	
-8.45371025E+000	-1.17538749E+002	
-8.43299694E+000	-1.17569074E+002	
-8.41228364E+000	-1.17529913E+002	
-8.39157033E+000	-1.17512638E+002	
-8.37085703E+000	-1.17557293E+002	
-8.35014372E+000	-1.17574464E+002	
-8.32943042E+000	-1.17603879E+002	
-8.30871711E+000	-1.17547606E+002	
-8.28800381E+000	-1.17579836E+002	
-8.26729050E+000	-1.17586416E+002	
-8.24657720E+000	-1.17573309E+002	
-8.22586389E+000	-1.17550933E+002	
-8.20515059E+000	-1.17603554E+002	
-8.18443728E+000	-1.17604459E+002	
-8.16372397E+000	-1.17589955E+002	
-8.14301067E+000	-1.17549810E+002	
-8.12229736E+000	-1.17562111E+002	
-8.10158406E+000	-1.17569145E+002	
-8.08087075E+000	-1.17566299E+002	
-8.06015745E+000	-1.17545805E+002	
-8.03944414E+000	-1.17494354E+002	
-8.01873084E+000	-1.17516180E+002	
-7.99801753E+000	-1.17522382E+002	
-7.97730423E+000	-1.17519563E+002	
-7.95659092E+000	-1.17491308E+002	
-7.93587762E+000	-1.17510120E+002	
-7.91516431E+000	-1.17543730E+002	
-7.89445101E+000	-1.17541291E+002	
-7.87373770E+000	-1.17519819E+002	
-7.85302439E+000	-1.17509399E+002	
-7.83231109E+000	-1.17487132E+002	
-7.81159778E+000	-1.17534510E+002	
-7.79088448E+000	-1.17557253E+002	
-7.77017117E+000	-1.17573701E+002	
-7.74945787E+000	-1.17591746E+002	
-7.72874456E+000	-1.17615519E+002	
-7.70803126E+000	-1.17578904E+002	
-7.68731795E+000	-1.17603793E+002	
-7.66660465E+000	-1.17592920E+002	
-7.64589134E+000	-1.17603065E+002	
-7.62517804E+000	-1.17611890E+002	
-7.60446473E+000	-1.17534938E+002	
-7.58375143E+000	-1.17555439E+002	
-7.56303812E+000	-1.17593291E+002	
-7.54232482E+000	-1.17662812E+002	
-7.52161151E+000	-1.17646458E+002	
-7.50089820E+000	-1.17653069E+002	
-7.48018490E+000	-1.17638549E+002	
-7.45947159E+000	-1.17681074E+002	
-7.43875829E+000	-1.17607984E+002	
-7.41804498E+000	-1.17536161E+002	
-7.39733168E+000	-1.17574980E+002	
-7.37661837E+000	-1.17574831E+002	
-7.35590507E+000	-1.17587931E+002	
-7.33519176E+000	-1.17606908E+002	
-7.31447846E+000	-1.17630398E+002	
-7.29376515E+000	-1.17613828E+002	
-7.27305185E+000	-1.17588976E+002	
-7.25233854E+000	-1.17614848E+002	
-7.23162524E+000	-1.17614493E+002	
-7.21091193E+000	-1.17600850E+002	
-7.19019862E+000	-1.17592189E+002	
-7.16948532E+000	-1.17637370E+002	
-7.14877201E+000	-1.17699529E+002	
-7.12805871E+000	-1.17744395E+002	
-7.10734540E+000	-1.17824286E+002	
-7.08663210E+000	-1.17864013E+002	
-7.06591879E+000	-1.17839970E+002	
-7.04520549E+000	-1.17829006E+002	
-7.02449218E+000	-1.17811783E+002	
-7.00377888E+000	-1.17783012E+002	
-6.98306557E+000	-1.17799737E+002	
-6.96235227E+000	-1.17767990E+002	
-6.94163896E+000	-1.17809260E+002	
-6.92092566E+000	-1.17864861E+002	
-6.90021235E+000	-1.17867443E+002	
-6.87949904E+000	-1.17846445E+002	
-6.85878574E+000	-1.17824944E+002	
-6.83807243E+000	-1.17852924E+002	
-6.81735913E+000	-1.17869703E+002	
-6.79664582E+000	-1.17825316E+002	
-6.77593252E+000	-1.17851020E+002	
-6.75521921E+000	-1.17791845E+002	
-6.73450591E+000	-1.17790937E+002	
-6.71379260E+000	-1.17777611E+002	
-6.69307930E+000	-1.17776330E+002	
-6.67236599E+000	-1.17739915E+002	
-6.65165269E+000	-1.17723264E+002	
-6.63093938E+000	-1.17728870E+002	
-6.61022608E+000	-1.17740936E+002	
-6.58951277E+000	-1.17733906E+002	
-6.56879947E+000	-1.17717750E+002	
-6.54808616E+000	-1.17683404E+002	
-6.52737285E+000	-1.17660428E+002	
-6.50665955E+000	-1.17692498E+002	
-6.48594624E+000	-1.17737051E+002	
-6.46523294E+000	-1.17769006E+002	
-6.44451963E+000	-1.17699279E+002	
-6.42380633E+000	-1.17653288E+002	
-6.40309302E+000	-1.17637405E+002	
-6.38237972E+000	-1.17616361E+002	
-6.36166641E+000	-1.17623136E+002	
-6.34095311E+000	-1.17625644E+002	
-6.32023980E+000	-1.17620645E+002	
-6.29952650E+000	-1.17644454E+002	
-6.27881319E+000	-1.17618131E+002	
-6.25809989E+000	-1.17636674E+002	
-6.23738658E+000	-1.17628594E+002	
-6.21667327E+000	-1.17610226E+002	
-6.19595997E+000	-1.17620540E+002	
-6.17524666E+000	-1.17604249E+002	
-6.15453336E+000	-1.17604409E+002	
-6.13382005E+000	-1.17584481E+002	
-6.11310675E+000	-1.17588489E+002	
-6.09239344E+000	-1.17583855E+002	
-6.07168014E+000	-1.17541743E+002	
-6.05096683E+000	-1.17617002E+002	
-6.03025353E+000	-1.17626040E+002	
-6.00954022E+000	-1.17592530E+002	
-5.98882692E+000	-1.17538774E+002	
-5.96811361E+000	-1.17543534E+002	
-5.94740031E+000	-1.17581820E+002	
-5.92668700E+000	-1.17632096E+002	
-5.90597369E+000	-1.17650120E+002	
-5.88526039E+000	-1.17700174E+002	
-5.86454708E+000	-1.17723544E+002	
-5.84383378E+000	-1.17683309E+002	
-5.82312047E+000	-1.17688703E+002	
-5.80240717E+000	-1.17652732E+002	
-5.78169386E+000	-1.17663455E+002	
-5.76098056E+000	-1.17668595E+002	
-5.74026725E+000	-1.17660355E+002	
-5.71955395E+000	-1.17690804E+002	
-5.69884064E+000	-1.17688176E+002	
-5.67812734E+000	-1.17716067E+002	
-5.65741403E+000	-1.17718777E+002	
-5.63670073E+000	-1.17730417E+002	
-5.61598742E+000	-1.17712405E+002	
-5.59527412E+000	-1.17675883E+002	
-5.57456081E+000	-1.17739542E+002	
-5.55384750E+000	-1.17673162E+002	
-5.53313420E+000	-1.17606023E+002	
-5.51242089E+000	-1.17624444E+002	
-5.49170759E+000	-1.17633063E+002	
-5.47099428E+000	-1.17613644E+002	
-5.45028098E+000	-1.17662991E+002	
-5.42956767E+000	-1.17701671E+002	
-5.40885437E+000	-1.17684656E+002	
-5.38814106E+000	-1.17672846E+002	
-5.36742776E+000	-1.17634819E+002	
-5.34671445E+000	-1.17670306E+002	
-5.32600115E+000	-1.17679103E+002	
-5.30528784E+000	-1.17691030E+002	
-5.28457454E+000	-1.17667257E+002	
-5.26386123E+000	-1.17639247E+002	
-5.24314792E+000	-1.17586260E+002	
-5.22243462E+000	-1.17568425E+002	
-5.20172131E+000	-1.17575381E+002	
-5.18100801E+000	-1.17542338E+002	
-5.16029470E+000	-1.17533134E+002	
-5.13958140E+000	-1.17494255E+002	
-5.11886809E+000	-1.17473118E+002	
-5.09815479E+000	-1.17479716E+002	
-5.07744148E+000	-1.17444459E+002	
-5.05672818E+000	-1.17508055E+002	
-5.03601487E+000	-1.17532904E+002	
-5.01530157E+000	-1.17576380E+002	
-4.99458826E+000	-1.17583215E+002	
-4.97387496E+000	-1.17524215E+002	
-4.95316165E+000	-1.17523020E+002	
-4.93244834E+000	-1.17479502E+002	
-4.91173504E+000	-1.17461825E+002	
-4.89102173E+000	-1.17453985E+002	
-4.87030843E+000	-1.17493696E+002	
-4.84959512E+000	-1.17483823E+002	
-4.82888182E+000	-1.17445476E+002	
-4.80816851E+000	-1.17440385E+002	
-4.78745521E+000	-1.17452024E+002	
-4.76674190E+000	-1.17488412E+002	
-4.74602860E+000	-1.17507904E+002	
-4.72531529E+000	-1.17558835E+002	
-4.70460199E+000	-1.17546013E+002	
-4.68388868E+000	-1.17581932E+002	
-4.66317538E+000	-1.17563120E+002	
-4.64246207E+000	-1.17604337E+002	
-4.62174877E+000	-1.17644129E+002	
-4.60103546E+000	-1.17670268E+002	
-4.58032215E+000	-1.17693261E+002	
-4.55960885E+000	-1.17658727E+002	
-4.53889554E+000	-1.17692565E+002	
-4.51818224E+000	-1.17624266E+002	
-4.49746893E+000	-1.17583585E+002	
-4.47675563E+000	-1.17634599E+002	
-4.45604232E+000	-1.17617844E+002	
-4.43532902E+000	-1.17620905E+002	
-4.41461571E+000	-1.17624110E+002	
-4.39390241E+000	-1.17632716E+002	
-4.37318910E+000	-1.17636410E+002	
-4.35247580E+000	-1.17614513E+002	
-4.33176249E+000	-1.17605098E+002	
-4.31104919E+000	-1.17596345E+002	
-4.29033588E+000	-1.17591267E+002	
-4.26962257E+000	-1.17586466E+002	
-4.24890927E+000	-1.17631654E+002	
-4.22819596E+000	-1.17637404E+002	
-4.20748266E+000	-1.17677783E+002	
-4.18676935E+000	-1.17640556E+002	
-4.16605605E+000	-1.17650456E+002	
-4.14534274E+000	-1.17664315E+002	
-4.12462944E+000	-1.17616186E+002	
-4.10391613E+000	-1.17617979E+002	
-4.08320283E+000	-1.17611820E+002	
-4.06248952E+000	-1.17606028E+002	
-4.04177622E+000	-1.17562732E+002	
-4.02106291E+000	-1.17597568E+002	
-4.00034961E+000	-1.17595968E+002	
-3.97963630E+000	-1.17555332E+002	
-3.95892299E+000	-1.17564174E+002	
-3.93820969E+000	-1.17533572E+002	
-3.91749638E+000	-1.17546367E+002	
-3.89678308E+000	-1.17515738E+002	
-3.87606977E+000	-1.17454050E+002	
-3.85535647E+000	-1.17460660E+002	
-3.83464316E+000	-1.17452163E+002	
-3.81392986E+000	-1.17452801E+002	
-3.79321655E+000	-1.17479160E+002	
-3.77250325E+000	-1.17433785E+002	
-3.75178994E+000	-1.17448648E+002	
-3.73107664E+000	-1.17456202E+002	
-3.71036333E+000	-1.17396783E+002	
-3.68965003E+000	-1.17413165E+002	
-3.66893672E+000	-1.17467846E+002	
-3.64822342E+000	-1.17431939E+002	
-3.62751011E+000	-1.17451278E+002	
-3.60679680E+000	-1.17449919E+002	
-3.58608350E+000	-1.17450236E+002	
-3.56537019E+000	-1.17472006E+002	
-3.54465689E+000	-1.17477033E+002	
-3.52394358E+000	-1.17500663E+002	
-3.50323028E+000	-1.17544057E+002	
-3.48251697E+000	-1.17580081E+002	
-3.46180367E+000	-1.17618630E+002	
-3.44109036E+000	-1.17639377E+002	
-3.42037706E+000	-1.17668205E+002	
-3.39966375E+000	-1.17712333E+002	
-3.37895045E+000	-1.17766281E+002	
-3.35823714E+000	-1.17765260E+002	
-3.33752384E+000	-1.17777589E+002	
-3.31681053E+000	-1.17775705E+002	
-3.29609722E+000	-1.17750000E+002	
-3.27538392E+000	-1.17764381E+002	
-3.25467061E+000	-1.17779588E+002	
-3.23395731E+000	-1.17771074E+002	
-3.21324400E+000	-1.17796966E+002	
-3.19253070E+000	-1.17802682E+002	
-3.17181739E+000	-1.17769930E+002	
-3.15110409E+000	-1.17755255E+002	
-3.13039078E+000	-1.17751624E+002	
-3.10967748E+000	-1.17792554E+002	
-3.08896417E+000	-1.17763953E+002	
-3.06825087E+000	-1.17748926E+002	
-3.04753756E+000	-1.17781251E+002	
-3.02682426E+000	-1.17755686E+002	
-3.00611095E+000	-1.17683057E+002	
-2.98539764E+000	-1.17731044E+002	
-2.96468434E+000	-1.17691528E+002	
-2.94397103E+000	-1.17665637E+002	
-2.92325773E+000	-1.17621260E+002	
-2.90254442E+000	-1.17604274E+002	
-2.88183112E+000	-1.17615983E+002	
-2.86111781E+000	-1.17653898E+002	
-2.84040451E+000	-1.17688228E+002	
-2.81969120E+000	-1.17721522E+002	
-2.79897790E+000	-1.17792119E+002	
-2.77826459E+000	-1.17762155E+002	
-2.75755129E+000	-1.17725819E+002	
-2.73683798E+000	-1.17736718E+002	
-2.71612468E+000	-1.17687276E+002	
-2.69541137E+000	-1.17674274E+002	
-2.67469807E+000	-1.17736527E+002	
-2.65398476E+000	-1.17762711E+002	
-2.63327145E+000	-1.17760963E+002	
-2.61255815E+000	-1.17704909E+002	
-2.59184484E+000	-1.17713439E+002	
-2.57113154E+000	-1.17715239E+002	
-2.55041823E+000	-1.17707687E+002	
-2.52970493E+000	-1.17762216E+002	
-2.50899162E+000	-1.17835780E+002	
-2.48827832E+000	-1.17822923E+002	
-2.46756501E+000	-1.17831885E+002	
-2.44685171E+000	-1.17834711E+002	
-2.42613840E+000	-1.17872729E+002	
-2.40542510E+000	-1.17895874E+002	
-2.38471179E+000	-1.17885755E+002	
-2.36399849E+000	-1.17873666E+002	
-2.34328518E+000	-1.17820523E+002	
-2.32257187E+000	-1.17779853E+002	
-2.30185857E+000	-1.17713345E+002	
-2.28114526E+000	-1.17723650E+002	
-2.26043196E+000	-1.17801420E+002	
-2.23971865E+000	-1.17778872E+002	
-2.21900535E+000	-1.17830805E+002	
-2.19829204E+000	-1.17854344E+002	
-2.17757874E+000	-1.17810870E+002	
-2.15686543E+000	-1.17787704E+002	
-2.13615213E+000	-1.17834843E+002	
-2.11543882E+000	-1.17852507E+002	
-2.09472552E+000	-1.17875709E+002	
-2.07401221E+000	-1.17842141E+002	
-2.05329891E+000	-1.17797416E+002	
-2.03258560E+000	-1.17809505E+002	
-2.01187229E+000	-1.17801642E+002	
-1.99115899E+000	-1.17796632E+002	
-1.97044568E+000	-1.17737988E+002	
-1.94973238E+000	-1.17752004E+002	
-1.92901907E+000	-1.17729856E+002	
-1.90830577E+000	-1.17681896E+002	
-1.88759246E+000	-1.17671770E+002	
-1.86687916E+000	-1.17682375E+002	
-1.84616585E+000	-1.17654797E+002	
-1.82545255E+000	-1.17730417E+002	
-1.80473924E+000	-1.17726825E+002	
-1.78402594E+000	-1.17756849E+002	
-1.76331263E+000	-1.17760118E+002	
-1.74259933E+000	-1.17729718E+002	
-1.72188602E+000	-1.17721928E+002	
-1.70117272E+000	-1.17783442E+002	
-1.68045941E+000	-1.17805730E+002	
-1.65974610E+000	-1.17760338E+002	
-1.63903280E+000	-1.17727998E+002	
-1.61831949E+000	-1.17770891E+002	
-1.59760619E+000	-1.17773589E+002	
-1.57689288E+000	-1.17789153E+002	
-1.55617958E+000	-1.17844309E+002	
-1.53546627E+000	-1.17828936E+002	
-1.51475297E+000	-1.17826544E+002	
-1.49403966E+000	-1.17787070E+002	
-1.47332636E+000	-1.17813848E+002	
-1.45261305E+000	-1.17779152E+002	
-1.43189975E+000	-1.17775670E+002	
-1.41118644E+000	-1.17756752E+002	
-1.39047314E+000	-1.17773807E+002	
-1.36975983E+000	-1.17750898E+002	
-1.34904652E+000	-1.17752407E+002	
-1.32833322E+000	-1.17709183E+002	
-1.30761991E+000	-1.17677313E+002	
-1.28690661E+000	-1.17679587E+002	
-1.26619330E+000	-1.17663136E+002	
-1.24548000E+000	-1.17696304E+002	
-1.22476669E+000	-1.17731817E+002	
-1.20405339E+000	-1.17632053E+002	
-1.18334008E+000	-1.17626158E+002	
-1.16262678E+000	-1.17695820E+002	
-1.14191347E+000	-1.17714138E+002	
-1.12120017E+000	-1.17698999E+002	
-1.10048686E+000	-1.17672424E+002	
-1.07977356E+000	-1.17679030E+002	
-1.05906025E+000	-1.17704203E+002	
-1.03834694E+000	-1.17686846E+002	
-1.01763364E+000	-1.17644500E+002	
-9.96920334E-001	-1.17606034E+002	
-9.76207029E-001	-1.17595170E+002	
-9.55493724E-001	-1.17611226E+002	
-9.34780418E-001	-1.17637183E+002	
-9.14067113E-001	-1.17702671E+002	
-8.93353808E-001	-1.17699429E+002	
-8.72640502E-001	-1.17674769E+002	
-8.51927197E-001	-1.17715655E+002	
-8.31213892E-001	-1.17736937E+002	
-8.10500586E-001	-1.17784389E+002	
-7.89787281E-001	-1.17799315E+002	
-7.69073976E-001	-1.17814677E+002	
-7.48360671E-001	-1.17796523E+002	
-7.27647365E-001	-1.17789125E+002	
-7.06934060E-001	-1.17832447E+002	
-6.86220755E-001	-1.17858937E+002	
-6.65507449E-001	-1.17887247E+002	
-6.44794144E-001	-1.17885912E+002	
-6.24080839E-001	-1.17857503E+002	
-6.03367533E-001	-1.17847680E+002	
-5.82654228E-001	-1.17823290E+002	
-5.61940923E-001	-1.17768590E+002	
-5.41227617E-001	-1.17725230E+002	
-5.20514312E-001	-1.17731008E+002	
-4.99801007E-001	-1.17801531E+002	
-4.79087701E-001	-1.17859766E+002	
-4.58374396E-001	-1.17875933E+002	
-4.37661091E-001	-1.17828438E+002	
-4.16947785E-001	-1.17777112E+002	
-3.96234480E-001	-1.17762798E+002	
-3.75521175E-001	-1.17781402E+002	
-3.54807869E-001	-1.17779176E+002	
-3.34094564E-001	-1.17793094E+002	
-3.13381259E-001	-1.17824727E+002	
-2.92667954E-001	-1.17826579E+002	
-2.71954648E-001	-1.17789824E+002	
-2.51241343E-001	-1.13512459E+002	
-2.30528038E-001	-1.13250300E+002	
-2.09814732E-001	-1.13240257E+002	
-1.89101427E-001	-1.13206209E+002	
-1.68388122E-001	-1.13163269E+002	
-1.47674816E-001	-1.13147423E+002	
-1.26961511E-001	-1.13143471E+002	
-1.06248206E-001	-1.13105756E+002	
-8.55349003E-002	-1.13094821E+002	
-6.48215950E-002	-1.13089608E+002	
-4.41082897E-002	-1.13099442E+002	
-2.33949844E-002	-1.13091157E+002	
-2.68167905E-003	-1.13085446E+002	
1.80316263E-002	-1.13052647E+002	
3.87449316E-002	-1.13036624E+002	
5.94582369E-002	-1.13042463E+002	
8.01715422E-002	-1.13055004E+002	
1.00884848E-001	-1.13052074E+002	
1.21598153E-001	-1.13021483E+002	
1.42311458E-001	-1.13006819E+002	
1.63024763E-001	-1.12999752E+002	
1.83738069E-001	-1.12976458E+002	
2.04451374E-001	-1.12947906E+002	
2.25164679E-001	-1.12953245E+002	
2.45877985E-001	-1.15649307E+002	
2.66591290E-001	-1.16996587E+002	
2.87304595E-001	-1.17003296E+002	
3.08017901E-001	-1.17054821E+002	
3.28731206E-001	-1.17107446E+002	
3.49444511E-001	-1.17118046E+002	
3.70157817E-001	-1.17148902E+002	
3.90871122E-001	-1.17221138E+002	
4.11584427E-001	-1.17195956E+002	
4.32297733E-001	-1.17176859E+002	
4.53011038E-001	-1.17170212E+002	
4.73724343E-001	-1.17189564E+002	
4.94437649E-001	-1.17182546E+002	
5.15150954E-001	-1.17221083E+002	
5.35864259E-001	-1.17226826E+002	
5.56577565E-001	-1.17262269E+002	
5.77290870E-001	-1.17215079E+002	
5.98004175E-001	-1.17189913E+002	
6.18717481E-001	-1.17234029E+002	
6.39430786E-001	-1.17247904E+002	
6.60144091E-001	-1.17229699E+002	
6.80857396E-001	-1.17268921E+002	
7.01570702E-001	-1.17296860E+002	
7.22284007E-001	-1.17305112E+002	
7.42997312E-001	-1.17276081E+002	
7.63710618E-001	-1.17273046E+002	
7.84423923E-001	-1.17245629E+002	
8.05137228E-001	-1.17232174E+002	
8.25850534E-001	-1.17215556E+002	
8.46563839E-001	-1.17186612E+002	
8.67277144E-001	-1.17163991E+002	
8.87990450E-001	-1.17155408E+002	
9.08703755E-001	-1.17255148E+002	
9.29417060E-001	-1.17310664E+002	
9.50130366E-001	-1.17337203E+002	
9.70843671E-001	-1.17293209E+002	
9.91556976E-001	-1.17279680E+002	
1.01227028E+000	-1.17304349E+002	
1.03298359E+000	-1.17303822E+002	
1.05369689E+000	-1.17271556E+002	
1.07441020E+000	-1.17287147E+002	
1.09512350E+000	-1.17300295E+002	
1.11583681E+000	-1.17361819E+002	
1.13655011E+000	-1.17366212E+002	
1.15726342E+000	-1.17369789E+002	
1.17797672E+000	-1.17341921E+002	
1.19869003E+000	-1.17390645E+002	
1.21940333E+000	-1.17364566E+002	
1.24011664E+000	-1.17380904E+002	
1.26082995E+000	-1.17379002E+002	
1.28154325E+000	-1.17388720E+002	
1.30225656E+000	-1.17396051E+002	
1.32296986E+000	-1.17393490E+002	
1.34368317E+000	-1.17422440E+002	
1.36439647E+000	-1.17490501E+002	
1.38510978E+000	-1.17499167E+002	
1.40582308E+000	-1.17427026E+002	
1.42653639E+000	-1.17428876E+002	
1.44724969E+000	-1.17418559E+002	
1.46796300E+000	-1.17428643E+002	
1.48867630E+000	-1.17455167E+002	
1.50938961E+000	-1.17441969E+002	
1.53010291E+000	-1.17443397E+002	
1.55081622E+000	-1.17432336E+002	
1.57152953E+000	-1.17428131E+002	
