Acquired on 4/26/2021 at 16:18:37
Calibrated on 4/26/2021 at 14:40:00
Device Descriptor:  [none]
Scan Range (nm):  1539.624  --  1560.517
Measurement Type:  Reflection
Group Index:  1.500
Gain:  24 dB
Domain:  Time
Spatial Resolution (mm):  50.000000
Frequency domain window was applied to measurement data.
Number of Data Points (in this file):  16384
NOTE: Data stored in this file is decimated by a factor of 64.

Time (ns)	Amplitude (dB)	
-1.00072081E+001	-1.20269978E+002	
-9.98649484E+000	-1.19936158E+002	
-9.96578154E+000	-1.19609037E+002	
-9.94506823E+000	-1.19353618E+002	
-9.92435493E+000	-1.19126666E+002	
-9.90364162E+000	-1.18892664E+002	
-9.88292832E+000	-1.18676142E+002	
-9.86221501E+000	-1.18454535E+002	
-9.84150171E+000	-1.18263493E+002	
-9.82078840E+000	-1.18086233E+002	
-9.80007509E+000	-1.17880725E+002	
-9.77936179E+000	-1.17698622E+002	
-9.75864848E+000	-1.17650623E+002	
-9.73793518E+000	-1.17685944E+002	
-9.71722187E+000	-1.17682165E+002	
-9.69650857E+000	-1.17685280E+002	
-9.67579526E+000	-1.17755087E+002	
-9.65508196E+000	-1.17739814E+002	
-9.63436865E+000	-1.17685010E+002	
-9.61365535E+000	-1.17680708E+002	
-9.59294204E+000	-1.17695743E+002	
-9.57222874E+000	-1.17732321E+002	
-9.55151543E+000	-1.17762003E+002	
-9.53080213E+000	-1.17746116E+002	
-9.51008882E+000	-1.17781342E+002	
-9.48937552E+000	-1.17810633E+002	
-9.46866221E+000	-1.17798636E+002	
-9.44794890E+000	-1.17774382E+002	
-9.42723560E+000	-1.17723172E+002	
-9.40652229E+000	-1.17706596E+002	
-9.38580899E+000	-1.17676335E+002	
-9.36509568E+000	-1.17671920E+002	
-9.34438238E+000	-1.17629511E+002	
-9.32366907E+000	-1.17600615E+002	
-9.30295577E+000	-1.17606857E+002	
-9.28224246E+000	-1.17605465E+002	
-9.26152916E+000	-1.17555315E+002	
-9.24081585E+000	-1.17488780E+002	
-9.22010255E+000	-1.17467868E+002	
-9.19938924E+000	-1.17501345E+002	
-9.17867594E+000	-1.17475353E+002	
-9.15796263E+000	-1.17467699E+002	
-9.13724932E+000	-1.17526972E+002	
-9.11653602E+000	-1.17531999E+002	
-9.09582271E+000	-1.17505495E+002	
-9.07510941E+000	-1.17496486E+002	
-9.05439610E+000	-1.17487102E+002	
-9.03368280E+000	-1.17367985E+002	
-9.01296949E+000	-1.17350333E+002	
-8.99225619E+000	-1.17348711E+002	
-8.97154288E+000	-1.17391710E+002	
-8.95082958E+000	-1.17402321E+002	
-8.93011627E+000	-1.17426551E+002	
-8.90940297E+000	-1.17457113E+002	
-8.88868966E+000	-1.17478800E+002	
-8.86797636E+000	-1.17469863E+002	
-8.84726305E+000	-1.17474765E+002	
-8.82654974E+000	-1.17459428E+002	
-8.80583644E+000	-1.17478536E+002	
-8.78512313E+000	-1.17475230E+002	
-8.76440983E+000	-1.17480993E+002	
-8.74369652E+000	-1.17543790E+002	
-8.72298322E+000	-1.17564607E+002	
-8.70226991E+000	-1.17496120E+002	
-8.68155661E+000	-1.17474835E+002	
-8.66084330E+000	-1.17501567E+002	
-8.64013000E+000	-1.17459057E+002	
-8.61941669E+000	-1.17418254E+002	
-8.59870339E+000	-1.17445643E+002	
-8.57799008E+000	-1.17450135E+002	
-8.55727678E+000	-1.17415167E+002	
-8.53656347E+000	-1.17527447E+002	
-8.51585017E+000	-1.17538159E+002	
-8.49513686E+000	-1.17531384E+002	
-8.47442355E+000	-1.17521770E+002	
-8.45371025E+000	-1.17546135E+002	
-8.43299694E+000	-1.17579180E+002	
-8.41228364E+000	-1.17542812E+002	
-8.39157033E+000	-1.17530598E+002	
-8.37085703E+000	-1.17574408E+002	
-8.35014372E+000	-1.17592554E+002	
-8.32943042E+000	-1.17619163E+002	
-8.30871711E+000	-1.17565648E+002	
-8.28800381E+000	-1.17598669E+002	
-8.26729050E+000	-1.17595293E+002	
-8.24657720E+000	-1.17579264E+002	
-8.22586389E+000	-1.17554011E+002	
-8.20515059E+000	-1.17606510E+002	
-8.18443728E+000	-1.17607449E+002	
-8.16372397E+000	-1.17591752E+002	
-8.14301067E+000	-1.17560961E+002	
-8.12229736E+000	-1.17574407E+002	
-8.10158406E+000	-1.17574472E+002	
-8.08087075E+000	-1.17571963E+002	
-8.06015745E+000	-1.17552982E+002	
-8.03944414E+000	-1.17504654E+002	
-8.01873084E+000	-1.17524492E+002	
-7.99801753E+000	-1.17523741E+002	
-7.97730423E+000	-1.17519120E+002	
-7.95659092E+000	-1.17479985E+002	
-7.93587762E+000	-1.17497135E+002	
-7.91516431E+000	-1.17532686E+002	
-7.89445101E+000	-1.17519443E+002	
-7.87373770E+000	-1.17492944E+002	
-7.85302439E+000	-1.17485012E+002	
-7.83231109E+000	-1.17458066E+002	
-7.81159778E+000	-1.17504008E+002	
-7.79088448E+000	-1.17526249E+002	
-7.77017117E+000	-1.17545394E+002	
-7.74945787E+000	-1.17558818E+002	
-7.72874456E+000	-1.17580891E+002	
-7.70803126E+000	-1.17544324E+002	
-7.68731795E+000	-1.17575851E+002	
-7.66660465E+000	-1.17569234E+002	
-7.64589134E+000	-1.17571863E+002	
-7.62517804E+000	-1.17573758E+002	
-7.60446473E+000	-1.17495835E+002	
-7.58375143E+000	-1.17513095E+002	
-7.56303812E+000	-1.17554691E+002	
-7.54232482E+000	-1.17616058E+002	
-7.52161151E+000	-1.17601425E+002	
-7.50089820E+000	-1.17615582E+002	
-7.48018490E+000	-1.17602896E+002	
-7.45947159E+000	-1.17652068E+002	
-7.43875829E+000	-1.17581934E+002	
-7.41804498E+000	-1.17508281E+002	
-7.39733168E+000	-1.17553684E+002	
-7.37661837E+000	-1.17554030E+002	
-7.35590507E+000	-1.17564183E+002	
-7.33519176E+000	-1.17594483E+002	
-7.31447846E+000	-1.17619693E+002	
-7.29376515E+000	-1.17604105E+002	
-7.27305185E+000	-1.17580628E+002	
-7.25233854E+000	-1.17610544E+002	
-7.23162524E+000	-1.17611741E+002	
-7.21091193E+000	-1.17600327E+002	
-7.19019862E+000	-1.17591037E+002	
-7.16948532E+000	-1.17636500E+002	
-7.14877201E+000	-1.17705741E+002	
-7.12805871E+000	-1.17748636E+002	
-7.10734540E+000	-1.17830223E+002	
-7.08663210E+000	-1.17872071E+002	
-7.06591879E+000	-1.17838672E+002	
-7.04520549E+000	-1.17831301E+002	
-7.02449218E+000	-1.17817165E+002	
-7.00377888E+000	-1.17781340E+002	
-6.98306557E+000	-1.17807222E+002	
-6.96235227E+000	-1.17772930E+002	
-6.94163896E+000	-1.17812539E+002	
-6.92092566E+000	-1.17871489E+002	
-6.90021235E+000	-1.17877881E+002	
-6.87949904E+000	-1.17860717E+002	
-6.85878574E+000	-1.17844629E+002	
-6.83807243E+000	-1.17865294E+002	
-6.81735913E+000	-1.17875923E+002	
-6.79664582E+000	-1.17836612E+002	
-6.77593252E+000	-1.17862405E+002	
-6.75521921E+000	-1.17811585E+002	
-6.73450591E+000	-1.17809127E+002	
-6.71379260E+000	-1.17794468E+002	
-6.69307930E+000	-1.17789190E+002	
-6.67236599E+000	-1.17745570E+002	
-6.65165269E+000	-1.17724749E+002	
-6.63093938E+000	-1.17733002E+002	
-6.61022608E+000	-1.17750638E+002	
-6.58951277E+000	-1.17740181E+002	
-6.56879947E+000	-1.17731185E+002	
-6.54808616E+000	-1.17697819E+002	
-6.52737285E+000	-1.17680314E+002	
-6.50665955E+000	-1.17721282E+002	
-6.48594624E+000	-1.17761429E+002	
-6.46523294E+000	-1.17793726E+002	
-6.44451963E+000	-1.17730302E+002	
-6.42380633E+000	-1.17681603E+002	
-6.40309302E+000	-1.17664144E+002	
-6.38237972E+000	-1.17636442E+002	
-6.36166641E+000	-1.17638983E+002	
-6.34095311E+000	-1.17643587E+002	
-6.32023980E+000	-1.17634633E+002	
-6.29952650E+000	-1.17640949E+002	
-6.27881319E+000	-1.17605465E+002	
-6.25809989E+000	-1.17626111E+002	
-6.23738658E+000	-1.17625692E+002	
-6.21667327E+000	-1.17610363E+002	
-6.19595997E+000	-1.17616708E+002	
-6.17524666E+000	-1.17603101E+002	
-6.15453336E+000	-1.17611751E+002	
-6.13382005E+000	-1.17592279E+002	
-6.11310675E+000	-1.17590273E+002	
-6.09239344E+000	-1.17591711E+002	
-6.07168014E+000	-1.17549400E+002	
-6.05096683E+000	-1.17622619E+002	
-6.03025353E+000	-1.17626704E+002	
-6.00954022E+000	-1.17588364E+002	
-5.98882692E+000	-1.17533359E+002	
-5.96811361E+000	-1.17541302E+002	
-5.94740031E+000	-1.17570986E+002	
-5.92668700E+000	-1.17611358E+002	
-5.90597369E+000	-1.17624493E+002	
-5.88526039E+000	-1.17673008E+002	
-5.86454708E+000	-1.17696793E+002	
-5.84383378E+000	-1.17661602E+002	
-5.82312047E+000	-1.17669413E+002	
-5.80240717E+000	-1.17638086E+002	
-5.78169386E+000	-1.17659980E+002	
-5.76098056E+000	-1.17659057E+002	
-5.74026725E+000	-1.17647914E+002	
-5.71955395E+000	-1.17672144E+002	
-5.69884064E+000	-1.17670902E+002	
-5.67812734E+000	-1.17691665E+002	
-5.65741403E+000	-1.17681897E+002	
-5.63670073E+000	-1.17693548E+002	
-5.61598742E+000	-1.17672157E+002	
-5.59527412E+000	-1.17631201E+002	
-5.57456081E+000	-1.17688338E+002	
-5.55384750E+000	-1.17618005E+002	
-5.53313420E+000	-1.17546350E+002	
-5.51242089E+000	-1.17564668E+002	
-5.49170759E+000	-1.17575481E+002	
-5.47099428E+000	-1.17555436E+002	
-5.45028098E+000	-1.17607769E+002	
-5.42956767E+000	-1.17656156E+002	
-5.40885437E+000	-1.17640093E+002	
-5.38814106E+000	-1.17633555E+002	
-5.36742776E+000	-1.17608813E+002	
-5.34671445E+000	-1.17638745E+002	
-5.32600115E+000	-1.17648053E+002	
-5.30528784E+000	-1.17672534E+002	
-5.28457454E+000	-1.17658930E+002	
-5.26386123E+000	-1.17638993E+002	
-5.24314792E+000	-1.17586814E+002	
-5.22243462E+000	-1.17571093E+002	
-5.20172131E+000	-1.17572216E+002	
-5.18100801E+000	-1.17542826E+002	
-5.16029470E+000	-1.17540316E+002	
-5.13958140E+000	-1.17493207E+002	
-5.11886809E+000	-1.17468262E+002	
-5.09815479E+000	-1.17479696E+002	
-5.07744148E+000	-1.17447122E+002	
-5.05672818E+000	-1.17517948E+002	
-5.03601487E+000	-1.17552776E+002	
-5.01530157E+000	-1.17594115E+002	
-4.99458826E+000	-1.17598812E+002	
-4.97387496E+000	-1.17545392E+002	
-4.95316165E+000	-1.17545180E+002	
-4.93244834E+000	-1.17500322E+002	
-4.91173504E+000	-1.17489252E+002	
-4.89102173E+000	-1.17482175E+002	
-4.87030843E+000	-1.17513093E+002	
-4.84959512E+000	-1.17499420E+002	
-4.82888182E+000	-1.17461723E+002	
-4.80816851E+000	-1.17445072E+002	
-4.78745521E+000	-1.17445973E+002	
-4.76674190E+000	-1.17468648E+002	
-4.74602860E+000	-1.17484176E+002	
-4.72531529E+000	-1.17533525E+002	
-4.70460199E+000	-1.17533957E+002	
-4.68388868E+000	-1.17581166E+002	
-4.66317538E+000	-1.17568956E+002	
-4.64246207E+000	-1.17620942E+002	
-4.62174877E+000	-1.17670049E+002	
-4.60103546E+000	-1.17696804E+002	
-4.58032215E+000	-1.17719303E+002	
-4.55960885E+000	-1.17678860E+002	
-4.53889554E+000	-1.17711251E+002	
-4.51818224E+000	-1.17641951E+002	
-4.49746893E+000	-1.17594757E+002	
-4.47675563E+000	-1.17638589E+002	
-4.45604232E+000	-1.17620124E+002	
-4.43532902E+000	-1.17621746E+002	
-4.41461571E+000	-1.17620615E+002	
-4.39390241E+000	-1.17628183E+002	
-4.37318910E+000	-1.17626886E+002	
-4.35247580E+000	-1.17605726E+002	
-4.33176249E+000	-1.17598337E+002	
-4.31104919E+000	-1.17595352E+002	
-4.29033588E+000	-1.17592592E+002	
-4.26962257E+000	-1.17586452E+002	
-4.24890927E+000	-1.17633714E+002	
-4.22819596E+000	-1.17640700E+002	
-4.20748266E+000	-1.17672709E+002	
-4.18676935E+000	-1.17633375E+002	
-4.16605605E+000	-1.17640967E+002	
-4.14534274E+000	-1.17647670E+002	
-4.12462944E+000	-1.17601449E+002	
-4.10391613E+000	-1.17595843E+002	
-4.08320283E+000	-1.17581900E+002	
-4.06248952E+000	-1.17575927E+002	
-4.04177622E+000	-1.17525780E+002	
-4.02106291E+000	-1.17556265E+002	
-4.00034961E+000	-1.17561124E+002	
-3.97963630E+000	-1.17522026E+002	
-3.95892299E+000	-1.17529454E+002	
-3.93820969E+000	-1.17503379E+002	
-3.91749638E+000	-1.17513831E+002	
-3.89678308E+000	-1.17486602E+002	
-3.87606977E+000	-1.17428988E+002	
-3.85535647E+000	-1.17437301E+002	
-3.83464316E+000	-1.17424316E+002	
-3.81392986E+000	-1.17423680E+002	
-3.79321655E+000	-1.17451871E+002	
-3.77250325E+000	-1.17405378E+002	
-3.75178994E+000	-1.17418562E+002	
-3.73107664E+000	-1.17426201E+002	
-3.71036333E+000	-1.17372492E+002	
-3.68965003E+000	-1.17389976E+002	
-3.66893672E+000	-1.17435928E+002	
-3.64822342E+000	-1.17401101E+002	
-3.62751011E+000	-1.17423430E+002	
-3.60679680E+000	-1.17429352E+002	
-3.58608350E+000	-1.17429351E+002	
-3.56537019E+000	-1.17454687E+002	
-3.54465689E+000	-1.17456814E+002	
-3.52394358E+000	-1.17478974E+002	
-3.50323028E+000	-1.17518742E+002	
-3.48251697E+000	-1.17553224E+002	
-3.46180367E+000	-1.17586467E+002	
-3.44109036E+000	-1.17602929E+002	
-3.42037706E+000	-1.17634321E+002	
-3.39966375E+000	-1.17679571E+002	
-3.37895045E+000	-1.17734018E+002	
-3.35823714E+000	-1.17730101E+002	
-3.33752384E+000	-1.17738274E+002	
-3.31681053E+000	-1.17739751E+002	
-3.29609722E+000	-1.17717013E+002	
-3.27538392E+000	-1.17736063E+002	
-3.25467061E+000	-1.17749675E+002	
-3.23395731E+000	-1.17741134E+002	
-3.21324400E+000	-1.17766362E+002	
-3.19253070E+000	-1.17767906E+002	
-3.17181739E+000	-1.17732516E+002	
-3.15110409E+000	-1.17712375E+002	
-3.13039078E+000	-1.17704325E+002	
-3.10967748E+000	-1.17743003E+002	
-3.08896417E+000	-1.17728269E+002	
-3.06825087E+000	-1.17713277E+002	
-3.04753756E+000	-1.17752864E+002	
-3.02682426E+000	-1.17733966E+002	
-3.00611095E+000	-1.17659953E+002	
-2.98539764E+000	-1.17709286E+002	
-2.96468434E+000	-1.17678280E+002	
-2.94397103E+000	-1.17658472E+002	
-2.92325773E+000	-1.17613333E+002	
-2.90254442E+000	-1.17599716E+002	
-2.88183112E+000	-1.17613693E+002	
-2.86111781E+000	-1.17656359E+002	
-2.84040451E+000	-1.17700500E+002	
-2.81969120E+000	-1.17734294E+002	
-2.79897790E+000	-1.17803929E+002	
-2.77826459E+000	-1.17775336E+002	
-2.75755129E+000	-1.17743606E+002	
-2.73683798E+000	-1.17751984E+002	
-2.71612468E+000	-1.17696059E+002	
-2.69541137E+000	-1.17686249E+002	
-2.67469807E+000	-1.17755024E+002	
-2.65398476E+000	-1.17787114E+002	
-2.63327145E+000	-1.17788503E+002	
-2.61255815E+000	-1.17734825E+002	
-2.59184484E+000	-1.17739705E+002	
-2.57113154E+000	-1.17733669E+002	
-2.55041823E+000	-1.17722829E+002	
-2.52970493E+000	-1.17774652E+002	
-2.50899162E+000	-1.17849387E+002	
-2.48827832E+000	-1.17833444E+002	
-2.46756501E+000	-1.17838380E+002	
-2.44685171E+000	-1.17834177E+002	
-2.42613840E+000	-1.17866252E+002	
-2.40542510E+000	-1.17885464E+002	
-2.38471179E+000	-1.17873586E+002	
-2.36399849E+000	-1.17855576E+002	
-2.34328518E+000	-1.17804534E+002	
-2.32257187E+000	-1.17766365E+002	
-2.30185857E+000	-1.17696653E+002	
-2.28114526E+000	-1.17703106E+002	
-2.26043196E+000	-1.17776328E+002	
-2.23971865E+000	-1.17754272E+002	
-2.21900535E+000	-1.17811513E+002	
-2.19829204E+000	-1.17837431E+002	
-2.17757874E+000	-1.17794502E+002	
-2.15686543E+000	-1.17771202E+002	
-2.13615213E+000	-1.17808095E+002	
-2.11543882E+000	-1.17810509E+002	
-2.09472552E+000	-1.17826028E+002	
-2.07401221E+000	-1.17800442E+002	
-2.05329891E+000	-1.17755269E+002	
-2.03258560E+000	-1.17771545E+002	
-2.01187229E+000	-1.17771158E+002	
-1.99115899E+000	-1.17766235E+002	
-1.97044568E+000	-1.17703215E+002	
-1.94973238E+000	-1.17715134E+002	
-1.92901907E+000	-1.17694304E+002	
-1.90830577E+000	-1.17644629E+002	
-1.88759246E+000	-1.17633732E+002	
-1.86687916E+000	-1.17648699E+002	
-1.84616585E+000	-1.17618838E+002	
-1.82545255E+000	-1.17693329E+002	
-1.80473924E+000	-1.17696067E+002	
-1.78402594E+000	-1.17729740E+002	
-1.76331263E+000	-1.17733044E+002	
-1.74259933E+000	-1.17699763E+002	
-1.72188602E+000	-1.17694121E+002	
-1.70117272E+000	-1.17754312E+002	
-1.68045941E+000	-1.17775133E+002	
-1.65974610E+000	-1.17735200E+002	
-1.63903280E+000	-1.17707230E+002	
-1.61831949E+000	-1.17755617E+002	
-1.59760619E+000	-1.17765593E+002	
-1.57689288E+000	-1.17780084E+002	
-1.55617958E+000	-1.17839893E+002	
-1.53546627E+000	-1.17816567E+002	
-1.51475297E+000	-1.17807079E+002	
-1.49403966E+000	-1.17770999E+002	
-1.47332636E+000	-1.17802420E+002	
-1.45261305E+000	-1.17768427E+002	
-1.43189975E+000	-1.17765614E+002	
-1.41118644E+000	-1.17751583E+002	
-1.39047314E+000	-1.17766739E+002	
-1.36975983E+000	-1.17733182E+002	
-1.34904652E+000	-1.17728934E+002	
-1.32833322E+000	-1.17678597E+002	
-1.30761991E+000	-1.17641076E+002	
-1.28690661E+000	-1.17640007E+002	
-1.26619330E+000	-1.17619504E+002	
-1.24548000E+000	-1.17654718E+002	
-1.22476669E+000	-1.17688805E+002	
-1.20405339E+000	-1.17588656E+002	
-1.18334008E+000	-1.17583521E+002	
-1.16262678E+000	-1.17648428E+002	
-1.14191347E+000	-1.17666905E+002	
-1.12120017E+000	-1.17656451E+002	
-1.10048686E+000	-1.17632155E+002	
-1.07977356E+000	-1.17635765E+002	
-1.05906025E+000	-1.17658218E+002	
-1.03834694E+000	-1.17638641E+002	
-1.01763364E+000	-1.17588085E+002	
-9.96920334E-001	-1.17551997E+002	
-9.76207029E-001	-1.17539055E+002	
-9.55493724E-001	-1.17554994E+002	
-9.34780418E-001	-1.17575305E+002	
-9.14067113E-001	-1.17642187E+002	
-8.93353808E-001	-1.17640144E+002	
-8.72640502E-001	-1.17627554E+002	
-8.51927197E-001	-1.17670398E+002	
-8.31213892E-001	-1.17702760E+002	
-8.10500586E-001	-1.17750673E+002	
-7.89787281E-001	-1.17764794E+002	
-7.69073976E-001	-1.17782211E+002	
-7.48360671E-001	-1.17767498E+002	
-7.27647365E-001	-1.17762863E+002	
-7.06934060E-001	-1.17801577E+002	
-6.86220755E-001	-1.17821277E+002	
-6.65507449E-001	-1.17850929E+002	
-6.44794144E-001	-1.17850741E+002	
-6.24080839E-001	-1.17823129E+002	
-6.03367533E-001	-1.17812045E+002	
-5.82654228E-001	-1.17793702E+002	
-5.61940923E-001	-1.17743039E+002	
-5.41227617E-001	-1.17708533E+002	
-5.20514312E-001	-1.17726844E+002	
-4.99801007E-001	-1.17796913E+002	
-4.79087701E-001	-1.17858254E+002	
-4.58374396E-001	-1.17883371E+002	
-4.37661091E-001	-1.17848274E+002	
-4.16947785E-001	-1.17794199E+002	
-3.96234480E-001	-1.17784222E+002	
-3.75521175E-001	-1.17796269E+002	
-3.54807869E-001	-1.17798602E+002	
-3.34094564E-001	-1.17802918E+002	
-3.13381259E-001	-1.17830562E+002	
-2.92667954E-001	-1.17834188E+002	
-2.71954648E-001	-1.17794303E+002	
-2.51241343E-001	-1.13496266E+002	
-2.30528038E-001	-1.13236644E+002	
-2.09814732E-001	-1.13229500E+002	
-1.89101427E-001	-1.13195900E+002	
-1.68388122E-001	-1.13154950E+002	
-1.47674816E-001	-1.13138989E+002	
-1.26961511E-001	-1.13135939E+002	
-1.06248206E-001	-1.13097146E+002	
-8.55349003E-002	-1.13086335E+002	
-6.48215950E-002	-1.13080208E+002	
-4.41082897E-002	-1.13089416E+002	
-2.33949844E-002	-1.13081333E+002	
-2.68167905E-003	-1.13077239E+002	
1.80316263E-002	-1.13044302E+002	
3.87449316E-002	-1.13028306E+002	
5.94582369E-002	-1.13032685E+002	
8.01715422E-002	-1.13044577E+002	
1.00884848E-001	-1.13041100E+002	
1.21598153E-001	-1.13011665E+002	
1.42311458E-001	-1.12998562E+002	
1.63024763E-001	-1.12992764E+002	
1.83738069E-001	-1.12971573E+002	
2.04451374E-001	-1.12943172E+002	
2.25164679E-001	-1.12949926E+002	
2.45877985E-001	-1.15669123E+002	
2.66591290E-001	-1.17022936E+002	
2.87304595E-001	-1.17026739E+002	
3.08017901E-001	-1.17082758E+002	
3.28731206E-001	-1.17131533E+002	
3.49444511E-001	-1.17140871E+002	
3.70157817E-001	-1.17176649E+002	
3.90871122E-001	-1.17253214E+002	
4.11584427E-001	-1.17226049E+002	
4.32297733E-001	-1.17207463E+002	
4.53011038E-001	-1.17199722E+002	
4.73724343E-001	-1.17217699E+002	
4.94437649E-001	-1.17210720E+002	
5.15150954E-001	-1.17255089E+002	
5.35864259E-001	-1.17264411E+002	
5.56577565E-001	-1.17299093E+002	
5.77290870E-001	-1.17253228E+002	
5.98004175E-001	-1.17225421E+002	
6.18717481E-001	-1.17274882E+002	
6.39430786E-001	-1.17281232E+002	
6.60144091E-001	-1.17261477E+002	
6.80857396E-001	-1.17296161E+002	
7.01570702E-001	-1.17325739E+002	
7.22284007E-001	-1.17332261E+002	
7.42997312E-001	-1.17310076E+002	
7.63710618E-001	-1.17306563E+002	
7.84423923E-001	-1.17280295E+002	
8.05137228E-001	-1.17261491E+002	
8.25850534E-001	-1.17245758E+002	
8.46563839E-001	-1.17214941E+002	
8.67277144E-001	-1.17188490E+002	
8.87990450E-001	-1.17173015E+002	
9.08703755E-001	-1.17271552E+002	
9.29417060E-001	-1.17325123E+002	
9.50130366E-001	-1.17351277E+002	
9.70843671E-001	-1.17304330E+002	
9.91556976E-001	-1.17291123E+002	
1.01227028E+000	-1.17310661E+002	
1.03298359E+000	-1.17299281E+002	
1.05369689E+000	-1.17270089E+002	
1.07441020E+000	-1.17286107E+002	
1.09512350E+000	-1.17299310E+002	
1.11583681E+000	-1.17356056E+002	
1.13655011E+000	-1.17362311E+002	
1.15726342E+000	-1.17363187E+002	
1.17797672E+000	-1.17337077E+002	
1.19869003E+000	-1.17380593E+002	
1.21940333E+000	-1.17359908E+002	
1.24011664E+000	-1.17371112E+002	
1.26082995E+000	-1.17366859E+002	
1.28154325E+000	-1.17373883E+002	
1.30225656E+000	-1.17384351E+002	
1.32296986E+000	-1.17378216E+002	
1.34368317E+000	-1.17407808E+002	
1.36439647E+000	-1.17473641E+002	
1.38510978E+000	-1.17482782E+002	
1.40582308E+000	-1.17411152E+002	
1.42653639E+000	-1.17411543E+002	
1.44724969E+000	-1.17400140E+002	
1.46796300E+000	-1.17412831E+002	
1.48867630E+000	-1.17441939E+002	
1.50938961E+000	-1.17426174E+002	
1.53010291E+000	-1.17425560E+002	
1.55081622E+000	-1.17406848E+002	
1.57152953E+000	-1.17399143E+002	
