Acquired on 4/26/2021 at 16:44:34
Calibrated on 4/26/2021 at 14:40:00
Device Descriptor:  [none]
Scan Range (nm):  1539.624  --  1560.517
Measurement Type:  Reflection
Group Index:  1.500
Gain:  24 dB
Domain:  Time
Spatial Resolution (mm):  50.000000
Frequency domain window was applied to measurement data.
Number of Data Points (in this file):  16384
NOTE: Data stored in this file is decimated by a factor of 64.

Time (ns)	Amplitude (dB)	
-1.00072081E+001	-1.20266131E+002	
-9.98649484E+000	-1.19928804E+002	
-9.96578154E+000	-1.19602772E+002	
-9.94506823E+000	-1.19350375E+002	
-9.92435493E+000	-1.19118958E+002	
-9.90364162E+000	-1.18883444E+002	
-9.88292832E+000	-1.18669699E+002	
-9.86221501E+000	-1.18455807E+002	
-9.84150171E+000	-1.18266889E+002	
-9.82078840E+000	-1.18088489E+002	
-9.80007509E+000	-1.17879992E+002	
-9.77936179E+000	-1.17695580E+002	
-9.75864848E+000	-1.17639041E+002	
-9.73793518E+000	-1.17658757E+002	
-9.71722187E+000	-1.17654940E+002	
-9.69650857E+000	-1.17658421E+002	
-9.67579526E+000	-1.17724428E+002	
-9.65508196E+000	-1.17701804E+002	
-9.63436865E+000	-1.17654893E+002	
-9.61365535E+000	-1.17655827E+002	
-9.59294204E+000	-1.17668791E+002	
-9.57222874E+000	-1.17705525E+002	
-9.55151543E+000	-1.17736229E+002	
-9.53080213E+000	-1.17720694E+002	
-9.51008882E+000	-1.17754493E+002	
-9.48937552E+000	-1.17779762E+002	
-9.46866221E+000	-1.17767636E+002	
-9.44794890E+000	-1.17739927E+002	
-9.42723560E+000	-1.17692635E+002	
-9.40652229E+000	-1.17677568E+002	
-9.38580899E+000	-1.17649277E+002	
-9.36509568E+000	-1.17640073E+002	
-9.34438238E+000	-1.17588180E+002	
-9.32366907E+000	-1.17557995E+002	
-9.30295577E+000	-1.17568785E+002	
-9.28224246E+000	-1.17572556E+002	
-9.26152916E+000	-1.17520700E+002	
-9.24081585E+000	-1.17464923E+002	
-9.22010255E+000	-1.17449006E+002	
-9.19938924E+000	-1.17482377E+002	
-9.17867594E+000	-1.17456995E+002	
-9.15796263E+000	-1.17448344E+002	
-9.13724932E+000	-1.17506783E+002	
-9.11653602E+000	-1.17515114E+002	
-9.09582271E+000	-1.17498434E+002	
-9.07510941E+000	-1.17496681E+002	
-9.05439610E+000	-1.17484233E+002	
-9.03368280E+000	-1.17373009E+002	
-9.01296949E+000	-1.17361461E+002	
-8.99225619E+000	-1.17365120E+002	
-8.97154288E+000	-1.17411858E+002	
-8.95082958E+000	-1.17426119E+002	
-8.93011627E+000	-1.17445874E+002	
-8.90940297E+000	-1.17475222E+002	
-8.88868966E+000	-1.17494241E+002	
-8.86797636E+000	-1.17474809E+002	
-8.84726305E+000	-1.17485328E+002	
-8.82654974E+000	-1.17467975E+002	
-8.80583644E+000	-1.17487159E+002	
-8.78512313E+000	-1.17479230E+002	
-8.76440983E+000	-1.17486902E+002	
-8.74369652E+000	-1.17548911E+002	
-8.72298322E+000	-1.17570150E+002	
-8.70226991E+000	-1.17506360E+002	
-8.68155661E+000	-1.17487444E+002	
-8.66084330E+000	-1.17514454E+002	
-8.64013000E+000	-1.17466968E+002	
-8.61941669E+000	-1.17417019E+002	
-8.59870339E+000	-1.17433245E+002	
-8.57799008E+000	-1.17425074E+002	
-8.55727678E+000	-1.17399510E+002	
-8.53656347E+000	-1.17513310E+002	
-8.51585017E+000	-1.17521829E+002	
-8.49513686E+000	-1.17518945E+002	
-8.47442355E+000	-1.17503280E+002	
-8.45371025E+000	-1.17519009E+002	
-8.43299694E+000	-1.17548900E+002	
-8.41228364E+000	-1.17516483E+002	
-8.39157033E+000	-1.17502729E+002	
-8.37085703E+000	-1.17555966E+002	
-8.35014372E+000	-1.17577035E+002	
-8.32943042E+000	-1.17607148E+002	
-8.30871711E+000	-1.17557023E+002	
-8.28800381E+000	-1.17591951E+002	
-8.26729050E+000	-1.17592625E+002	
-8.24657720E+000	-1.17583875E+002	
-8.22586389E+000	-1.17558361E+002	
-8.20515059E+000	-1.17607708E+002	
-8.18443728E+000	-1.17604321E+002	
-8.16372397E+000	-1.17589862E+002	
-8.14301067E+000	-1.17562693E+002	
-8.12229736E+000	-1.17584253E+002	
-8.10158406E+000	-1.17594620E+002	
-8.08087075E+000	-1.17606312E+002	
-8.06015745E+000	-1.17586552E+002	
-8.03944414E+000	-1.17530900E+002	
-8.01873084E+000	-1.17549433E+002	
-7.99801753E+000	-1.17544748E+002	
-7.97730423E+000	-1.17539231E+002	
-7.95659092E+000	-1.17511129E+002	
-7.93587762E+000	-1.17535533E+002	
-7.91516431E+000	-1.17573675E+002	
-7.89445101E+000	-1.17569038E+002	
-7.87373770E+000	-1.17545582E+002	
-7.85302439E+000	-1.17540587E+002	
-7.83231109E+000	-1.17515809E+002	
-7.81159778E+000	-1.17555994E+002	
-7.79088448E+000	-1.17581419E+002	
-7.77017117E+000	-1.17596589E+002	
-7.74945787E+000	-1.17607721E+002	
-7.72874456E+000	-1.17626473E+002	
-7.70803126E+000	-1.17589715E+002	
-7.68731795E+000	-1.17621499E+002	
-7.66660465E+000	-1.17611522E+002	
-7.64589134E+000	-1.17610492E+002	
-7.62517804E+000	-1.17610180E+002	
-7.60446473E+000	-1.17529830E+002	
-7.58375143E+000	-1.17540239E+002	
-7.56303812E+000	-1.17573006E+002	
-7.54232482E+000	-1.17637592E+002	
-7.52161151E+000	-1.17620027E+002	
-7.50089820E+000	-1.17633518E+002	
-7.48018490E+000	-1.17615098E+002	
-7.45947159E+000	-1.17663981E+002	
-7.43875829E+000	-1.17588140E+002	
-7.41804498E+000	-1.17504793E+002	
-7.39733168E+000	-1.17539918E+002	
-7.37661837E+000	-1.17535336E+002	
-7.35590507E+000	-1.17542466E+002	
-7.33519176E+000	-1.17565533E+002	
-7.31447846E+000	-1.17594572E+002	
-7.29376515E+000	-1.17576225E+002	
-7.27305185E+000	-1.17557180E+002	
-7.25233854E+000	-1.17587735E+002	
-7.23162524E+000	-1.17589957E+002	
-7.21091193E+000	-1.17580800E+002	
-7.19019862E+000	-1.17571000E+002	
-7.16948532E+000	-1.17617758E+002	
-7.14877201E+000	-1.17685883E+002	
-7.12805871E+000	-1.17730264E+002	
-7.10734540E+000	-1.17809139E+002	
-7.08663210E+000	-1.17848130E+002	
-7.06591879E+000	-1.17818544E+002	
-7.04520549E+000	-1.17809210E+002	
-7.02449218E+000	-1.17794876E+002	
-7.00377888E+000	-1.17764493E+002	
-6.98306557E+000	-1.17798112E+002	
-6.96235227E+000	-1.17761864E+002	
-6.94163896E+000	-1.17802094E+002	
-6.92092566E+000	-1.17870078E+002	
-6.90021235E+000	-1.17878802E+002	
-6.87949904E+000	-1.17864090E+002	
-6.85878574E+000	-1.17843915E+002	
-6.83807243E+000	-1.17870237E+002	
-6.81735913E+000	-1.17883021E+002	
-6.79664582E+000	-1.17833465E+002	
-6.77593252E+000	-1.17857575E+002	
-6.75521921E+000	-1.17806200E+002	
-6.73450591E+000	-1.17805690E+002	
-6.71379260E+000	-1.17788166E+002	
-6.69307930E+000	-1.17786528E+002	
-6.67236599E+000	-1.17745645E+002	
-6.65165269E+000	-1.17732612E+002	
-6.63093938E+000	-1.17738107E+002	
-6.61022608E+000	-1.17749838E+002	
-6.58951277E+000	-1.17745642E+002	
-6.56879947E+000	-1.17733284E+002	
-6.54808616E+000	-1.17698289E+002	
-6.52737285E+000	-1.17682582E+002	
-6.50665955E+000	-1.17717392E+002	
-6.48594624E+000	-1.17757847E+002	
-6.46523294E+000	-1.17788042E+002	
-6.44451963E+000	-1.17720442E+002	
-6.42380633E+000	-1.17673852E+002	
-6.40309302E+000	-1.17665001E+002	
-6.38237972E+000	-1.17640601E+002	
-6.36166641E+000	-1.17641926E+002	
-6.34095311E+000	-1.17646102E+002	
-6.32023980E+000	-1.17645567E+002	
-6.29952650E+000	-1.17669057E+002	
-6.27881319E+000	-1.17635755E+002	
-6.25809989E+000	-1.17654797E+002	
-6.23738658E+000	-1.17644523E+002	
-6.21667327E+000	-1.17626279E+002	
-6.19595997E+000	-1.17635509E+002	
-6.17524666E+000	-1.17621695E+002	
-6.15453336E+000	-1.17625606E+002	
-6.13382005E+000	-1.17612029E+002	
-6.11310675E+000	-1.17622030E+002	
-6.09239344E+000	-1.17610570E+002	
-6.07168014E+000	-1.17561921E+002	
-6.05096683E+000	-1.17637059E+002	
-6.03025353E+000	-1.17643446E+002	
-6.00954022E+000	-1.17611892E+002	
-5.98882692E+000	-1.17555629E+002	
-5.96811361E+000	-1.17564397E+002	
-5.94740031E+000	-1.17608532E+002	
-5.92668700E+000	-1.17650287E+002	
-5.90597369E+000	-1.17656474E+002	
-5.88526039E+000	-1.17696783E+002	
-5.86454708E+000	-1.17712818E+002	
-5.84383378E+000	-1.17675170E+002	
-5.82312047E+000	-1.17671683E+002	
-5.80240717E+000	-1.17632113E+002	
-5.78169386E+000	-1.17651903E+002	
-5.76098056E+000	-1.17658122E+002	
-5.74026725E+000	-1.17655219E+002	
-5.71955395E+000	-1.17688613E+002	
-5.69884064E+000	-1.17691646E+002	
-5.67812734E+000	-1.17718039E+002	
-5.65741403E+000	-1.17712174E+002	
-5.63670073E+000	-1.17717276E+002	
-5.61598742E+000	-1.17693981E+002	
-5.59527412E+000	-1.17656649E+002	
-5.57456081E+000	-1.17723338E+002	
-5.55384750E+000	-1.17655784E+002	
-5.53313420E+000	-1.17588958E+002	
-5.51242089E+000	-1.17601600E+002	
-5.49170759E+000	-1.17606175E+002	
-5.47099428E+000	-1.17584720E+002	
-5.45028098E+000	-1.17628390E+002	
-5.42956767E+000	-1.17676912E+002	
-5.40885437E+000	-1.17663072E+002	
-5.38814106E+000	-1.17657820E+002	
-5.36742776E+000	-1.17631733E+002	
-5.34671445E+000	-1.17668416E+002	
-5.32600115E+000	-1.17676537E+002	
-5.30528784E+000	-1.17692439E+002	
-5.28457454E+000	-1.17671992E+002	
-5.26386123E+000	-1.17648681E+002	
-5.24314792E+000	-1.17594353E+002	
-5.22243462E+000	-1.17578516E+002	
-5.20172131E+000	-1.17580983E+002	
-5.18100801E+000	-1.17545026E+002	
-5.16029470E+000	-1.17537504E+002	
-5.13958140E+000	-1.17489170E+002	
-5.11886809E+000	-1.17471021E+002	
-5.09815479E+000	-1.17481998E+002	
-5.07744148E+000	-1.17449667E+002	
-5.05672818E+000	-1.17517000E+002	
-5.03601487E+000	-1.17539146E+002	
-5.01530157E+000	-1.17588109E+002	
-4.99458826E+000	-1.17597076E+002	
-4.97387496E+000	-1.17538375E+002	
-4.95316165E+000	-1.17536416E+002	
-4.93244834E+000	-1.17492333E+002	
-4.91173504E+000	-1.17478213E+002	
-4.89102173E+000	-1.17466924E+002	
-4.87030843E+000	-1.17503423E+002	
-4.84959512E+000	-1.17491777E+002	
-4.82888182E+000	-1.17454071E+002	
-4.80816851E+000	-1.17448006E+002	
-4.78745521E+000	-1.17461599E+002	
-4.76674190E+000	-1.17483758E+002	
-4.74602860E+000	-1.17502570E+002	
-4.72531529E+000	-1.17550593E+002	
-4.70460199E+000	-1.17536273E+002	
-4.68388868E+000	-1.17574034E+002	
-4.66317538E+000	-1.17561131E+002	
-4.64246207E+000	-1.17615924E+002	
-4.62174877E+000	-1.17655364E+002	
-4.60103546E+000	-1.17683297E+002	
-4.58032215E+000	-1.17701390E+002	
-4.55960885E+000	-1.17657180E+002	
-4.53889554E+000	-1.17693974E+002	
-4.51818224E+000	-1.17616045E+002	
-4.49746893E+000	-1.17568617E+002	
-4.47675563E+000	-1.17620707E+002	
-4.45604232E+000	-1.17609080E+002	
-4.43532902E+000	-1.17607869E+002	
-4.41461571E+000	-1.17604236E+002	
-4.39390241E+000	-1.17616319E+002	
-4.37318910E+000	-1.17621568E+002	
-4.35247580E+000	-1.17604258E+002	
-4.33176249E+000	-1.17596480E+002	
-4.31104919E+000	-1.17589114E+002	
-4.29033588E+000	-1.17577945E+002	
-4.26962257E+000	-1.17571596E+002	
-4.24890927E+000	-1.17609727E+002	
-4.22819596E+000	-1.17613012E+002	
-4.20748266E+000	-1.17650997E+002	
-4.18676935E+000	-1.17615319E+002	
-4.16605605E+000	-1.17623562E+002	
-4.14534274E+000	-1.17622923E+002	
-4.12462944E+000	-1.17577201E+002	
-4.10391613E+000	-1.17573509E+002	
-4.08320283E+000	-1.17565896E+002	
-4.06248952E+000	-1.17564154E+002	
-4.04177622E+000	-1.17519939E+002	
-4.02106291E+000	-1.17556177E+002	
-4.00034961E+000	-1.17560488E+002	
-3.97963630E+000	-1.17522827E+002	
-3.95892299E+000	-1.17526322E+002	
-3.93820969E+000	-1.17498210E+002	
-3.91749638E+000	-1.17510796E+002	
-3.89678308E+000	-1.17482621E+002	
-3.87606977E+000	-1.17421160E+002	
-3.85535647E+000	-1.17426191E+002	
-3.83464316E+000	-1.17418910E+002	
-3.81392986E+000	-1.17419950E+002	
-3.79321655E+000	-1.17451122E+002	
-3.77250325E+000	-1.17403860E+002	
-3.75178994E+000	-1.17420344E+002	
-3.73107664E+000	-1.17428775E+002	
-3.71036333E+000	-1.17371234E+002	
-3.68965003E+000	-1.17387978E+002	
-3.66893672E+000	-1.17443356E+002	
-3.64822342E+000	-1.17416291E+002	
-3.62751011E+000	-1.17439155E+002	
-3.60679680E+000	-1.17442517E+002	
-3.58608350E+000	-1.17443600E+002	
-3.56537019E+000	-1.17468566E+002	
-3.54465689E+000	-1.17472190E+002	
-3.52394358E+000	-1.17496274E+002	
-3.50323028E+000	-1.17539101E+002	
-3.48251697E+000	-1.17573049E+002	
-3.46180367E+000	-1.17609107E+002	
-3.44109036E+000	-1.17625107E+002	
-3.42037706E+000	-1.17652921E+002	
-3.39966375E+000	-1.17697873E+002	
-3.37895045E+000	-1.17744060E+002	
-3.35823714E+000	-1.17735059E+002	
-3.33752384E+000	-1.17739149E+002	
-3.31681053E+000	-1.17740805E+002	
-3.29609722E+000	-1.17715975E+002	
-3.27538392E+000	-1.17738336E+002	
-3.25467061E+000	-1.17751920E+002	
-3.23395731E+000	-1.17742276E+002	
-3.21324400E+000	-1.17767106E+002	
-3.19253070E+000	-1.17773022E+002	
-3.17181739E+000	-1.17729122E+002	
-3.15110409E+000	-1.17708651E+002	
-3.13039078E+000	-1.17702449E+002	
-3.10967748E+000	-1.17740473E+002	
-3.08896417E+000	-1.17720531E+002	
-3.06825087E+000	-1.17702201E+002	
-3.04753756E+000	-1.17734325E+002	
-3.02682426E+000	-1.17708224E+002	
-3.00611095E+000	-1.17636707E+002	
-2.98539764E+000	-1.17681708E+002	
-2.96468434E+000	-1.17646896E+002	
-2.94397103E+000	-1.17630634E+002	
-2.92325773E+000	-1.17590394E+002	
-2.90254442E+000	-1.17578347E+002	
-2.88183112E+000	-1.17597326E+002	
-2.86111781E+000	-1.17648067E+002	
-2.84040451E+000	-1.17689039E+002	
-2.81969120E+000	-1.17720219E+002	
-2.79897790E+000	-1.17787764E+002	
-2.77826459E+000	-1.17755090E+002	
-2.75755129E+000	-1.17724481E+002	
-2.73683798E+000	-1.17734586E+002	
-2.71612468E+000	-1.17681001E+002	
-2.69541137E+000	-1.17666822E+002	
-2.67469807E+000	-1.17735407E+002	
-2.65398476E+000	-1.17768505E+002	
-2.63327145E+000	-1.17769672E+002	
-2.61255815E+000	-1.17713691E+002	
-2.59184484E+000	-1.17716574E+002	
-2.57113154E+000	-1.17719915E+002	
-2.55041823E+000	-1.17709240E+002	
-2.52970493E+000	-1.17765945E+002	
-2.50899162E+000	-1.17835746E+002	
-2.48827832E+000	-1.17828333E+002	
-2.46756501E+000	-1.17836944E+002	
-2.44685171E+000	-1.17832044E+002	
-2.42613840E+000	-1.17863926E+002	
-2.40542510E+000	-1.17884865E+002	
-2.38471179E+000	-1.17872965E+002	
-2.36399849E+000	-1.17854527E+002	
-2.34328518E+000	-1.17801233E+002	
-2.32257187E+000	-1.17764198E+002	
-2.30185857E+000	-1.17695316E+002	
-2.28114526E+000	-1.17706470E+002	
-2.26043196E+000	-1.17774653E+002	
-2.23971865E+000	-1.17749220E+002	
-2.21900535E+000	-1.17806121E+002	
-2.19829204E+000	-1.17835174E+002	
-2.17757874E+000	-1.17794198E+002	
-2.15686543E+000	-1.17769893E+002	
-2.13615213E+000	-1.17804116E+002	
-2.11543882E+000	-1.17816844E+002	
-2.09472552E+000	-1.17846531E+002	
-2.07401221E+000	-1.17819895E+002	
-2.05329891E+000	-1.17778415E+002	
-2.03258560E+000	-1.17795724E+002	
-2.01187229E+000	-1.17792601E+002	
-1.99115899E+000	-1.17786278E+002	
-1.97044568E+000	-1.17729446E+002	
-1.94973238E+000	-1.17746956E+002	
-1.92901907E+000	-1.17729339E+002	
-1.90830577E+000	-1.17678414E+002	
-1.88759246E+000	-1.17669433E+002	
-1.86687916E+000	-1.17689797E+002	
-1.84616585E+000	-1.17656738E+002	
-1.82545255E+000	-1.17728519E+002	
-1.80473924E+000	-1.17732793E+002	
-1.78402594E+000	-1.17765293E+002	
-1.76331263E+000	-1.17773719E+002	
-1.74259933E+000	-1.17749127E+002	
-1.72188602E+000	-1.17748672E+002	
-1.70117272E+000	-1.17808106E+002	
-1.68045941E+000	-1.17828016E+002	
-1.65974610E+000	-1.17782694E+002	
-1.63903280E+000	-1.17749015E+002	
-1.61831949E+000	-1.17794201E+002	
-1.59760619E+000	-1.17793342E+002	
-1.57689288E+000	-1.17805339E+002	
-1.55617958E+000	-1.17868637E+002	
-1.53546627E+000	-1.17849853E+002	
-1.51475297E+000	-1.17841518E+002	
-1.49403966E+000	-1.17806969E+002	
-1.47332636E+000	-1.17833375E+002	
-1.45261305E+000	-1.17797185E+002	
-1.43189975E+000	-1.17794556E+002	
-1.41118644E+000	-1.17780825E+002	
-1.39047314E+000	-1.17797329E+002	
-1.36975983E+000	-1.17766558E+002	
-1.34904652E+000	-1.17768648E+002	
-1.32833322E+000	-1.17723084E+002	
-1.30761991E+000	-1.17688064E+002	
-1.28690661E+000	-1.17688041E+002	
-1.26619330E+000	-1.17666230E+002	
-1.24548000E+000	-1.17698491E+002	
-1.22476669E+000	-1.17728313E+002	
-1.20405339E+000	-1.17627633E+002	
-1.18334008E+000	-1.17618256E+002	
-1.16262678E+000	-1.17690582E+002	
-1.14191347E+000	-1.17718000E+002	
-1.12120017E+000	-1.17711737E+002	
-1.10048686E+000	-1.17689883E+002	
-1.07977356E+000	-1.17690264E+002	
-1.05906025E+000	-1.17706927E+002	
-1.03834694E+000	-1.17688832E+002	
-1.01763364E+000	-1.17642106E+002	
-9.96920334E-001	-1.17602265E+002	
-9.76207029E-001	-1.17586402E+002	
-9.55493724E-001	-1.17601292E+002	
-9.34780418E-001	-1.17617874E+002	
-9.14067113E-001	-1.17680340E+002	
-8.93353808E-001	-1.17674255E+002	
-8.72640502E-001	-1.17655081E+002	
-8.51927197E-001	-1.17696263E+002	
-8.31213892E-001	-1.17727081E+002	
-8.10500586E-001	-1.17769539E+002	
-7.89787281E-001	-1.17781870E+002	
-7.69073976E-001	-1.17798017E+002	
-7.48360671E-001	-1.17781621E+002	
-7.27647365E-001	-1.17772261E+002	
-7.06934060E-001	-1.17814613E+002	
-6.86220755E-001	-1.17843211E+002	
-6.65507449E-001	-1.17871181E+002	
-6.44794144E-001	-1.17869772E+002	
-6.24080839E-001	-1.17838525E+002	
-6.03367533E-001	-1.17824513E+002	
-5.82654228E-001	-1.17807585E+002	
-5.61940923E-001	-1.17759626E+002	
-5.41227617E-001	-1.17717612E+002	
-5.20514312E-001	-1.17729236E+002	
-4.99801007E-001	-1.17801446E+002	
-4.79087701E-001	-1.17864026E+002	
-4.58374396E-001	-1.17883114E+002	
-4.37661091E-001	-1.17842621E+002	
-4.16947785E-001	-1.17795751E+002	
-3.96234480E-001	-1.17788333E+002	
-3.75521175E-001	-1.17802316E+002	
-3.54807869E-001	-1.17804252E+002	
-3.34094564E-001	-1.17813366E+002	
-3.13381259E-001	-1.17845195E+002	
-2.92667954E-001	-1.17844884E+002	
-2.71954648E-001	-1.17810211E+002	
-2.51241343E-001	-1.13360950E+002	
-2.30528038E-001	-1.13109962E+002	
-2.09814732E-001	-1.13102109E+002	
-1.89101427E-001	-1.13068976E+002	
-1.68388122E-001	-1.13027091E+002	
-1.47674816E-001	-1.13010861E+002	
-1.26961511E-001	-1.13004984E+002	
-1.06248206E-001	-1.12967594E+002	
-8.55349003E-002	-1.12956703E+002	
-6.48215950E-002	-1.12951769E+002	
-4.41082897E-002	-1.12960719E+002	
-2.33949844E-002	-1.12952291E+002	
-2.68167905E-003	-1.12947693E+002	
1.80316263E-002	-1.12915705E+002	
3.87449316E-002	-1.12899933E+002	
5.94582369E-002	-1.12905115E+002	
8.01715422E-002	-1.12915686E+002	
1.00884848E-001	-1.12908719E+002	
1.21598153E-001	-1.12877575E+002	
1.42311458E-001	-1.12865140E+002	
1.63024763E-001	-1.12858557E+002	
1.83738069E-001	-1.12838697E+002	
2.04451374E-001	-1.12812437E+002	
2.25164679E-001	-1.12817351E+002	
2.45877985E-001	-1.15616850E+002	
2.66591290E-001	-1.16999542E+002	
2.87304595E-001	-1.17006664E+002	
3.08017901E-001	-1.17064550E+002	
3.28731206E-001	-1.17120666E+002	
3.49444511E-001	-1.17131853E+002	
3.70157817E-001	-1.17168618E+002	
3.90871122E-001	-1.17246660E+002	
4.11584427E-001	-1.17217474E+002	
4.32297733E-001	-1.17192362E+002	
4.53011038E-001	-1.17184156E+002	
4.73724343E-001	-1.17199546E+002	
4.94437649E-001	-1.17191823E+002	
5.15150954E-001	-1.17231016E+002	
5.35864259E-001	-1.17240217E+002	
5.56577565E-001	-1.17276808E+002	
5.77290870E-001	-1.17224378E+002	
5.98004175E-001	-1.17205848E+002	
6.18717481E-001	-1.17254545E+002	
6.39430786E-001	-1.17259601E+002	
6.60144091E-001	-1.17241692E+002	
6.80857396E-001	-1.17277971E+002	
7.01570702E-001	-1.17305796E+002	
7.22284007E-001	-1.17311174E+002	
7.42997312E-001	-1.17287134E+002	
7.63710618E-001	-1.17288771E+002	
7.84423923E-001	-1.17253232E+002	
8.05137228E-001	-1.17229480E+002	
8.25850534E-001	-1.17210893E+002	
8.46563839E-001	-1.17181091E+002	
8.67277144E-001	-1.17154791E+002	
8.87990450E-001	-1.17141539E+002	
9.08703755E-001	-1.17237220E+002	
9.29417060E-001	-1.17292494E+002	
9.50130366E-001	-1.17317783E+002	
9.70843671E-001	-1.17281058E+002	
9.91556976E-001	-1.17271713E+002	
1.01227028E+000	-1.17296359E+002	
1.03298359E+000	-1.17289288E+002	
1.05369689E+000	-1.17258935E+002	
1.07441020E+000	-1.17284448E+002	
1.09512350E+000	-1.17294654E+002	
1.11583681E+000	-1.17356578E+002	
1.13655011E+000	-1.17360130E+002	
1.15726342E+000	-1.17357441E+002	
1.17797672E+000	-1.17324294E+002	
1.19869003E+000	-1.17373155E+002	
1.21940333E+000	-1.17356621E+002	
1.24011664E+000	-1.17371019E+002	
1.26082995E+000	-1.17364449E+002	
1.28154325E+000	-1.17375105E+002	
1.30225656E+000	-1.17385122E+002	
1.32296986E+000	-1.17377823E+002	
1.34368317E+000	-1.17403196E+002	
1.36439647E+000	-1.17472735E+002	
1.38510978E+000	-1.17474290E+002	
1.40582308E+000	-1.17405738E+002	
1.42653639E+000	-1.17408431E+002	
1.44724969E+000	-1.17397834E+002	
1.46796300E+000	-1.17407068E+002	
1.48867630E+000	-1.17430854E+002	
1.50938961E+000	-1.17411172E+002	
1.53010291E+000	-1.17409798E+002	
1.55081622E+000	-1.17392235E+002	
1.57152953E+000	-1.17385014E+002	
