Acquired on 4/26/2021 at 16:05:25
Calibrated on 4/26/2021 at 14:40:00
Device Descriptor:  [none]
Scan Range (nm):  1539.624  --  1560.517
Measurement Type:  Reflection
Group Index:  1.500
Gain:  24 dB
Domain:  Time
Spatial Resolution (mm):  50.000000
Frequency domain window was applied to measurement data.
Number of Data Points (in this file):  16384
NOTE: Data stored in this file is decimated by a factor of 64.

Time (ns)	Amplitude (dB)	
-1.00072081E+001	-1.20291612E+002	
-9.98649484E+000	-1.19964858E+002	
-9.96578154E+000	-1.19640243E+002	
-9.94506823E+000	-1.19381403E+002	
-9.92435493E+000	-1.19148228E+002	
-9.90364162E+000	-1.18910743E+002	
-9.88292832E+000	-1.18695488E+002	
-9.86221501E+000	-1.18477635E+002	
-9.84150171E+000	-1.18286173E+002	
-9.82078840E+000	-1.18106334E+002	
-9.80007509E+000	-1.17897806E+002	
-9.77936179E+000	-1.17707625E+002	
-9.75864848E+000	-1.17652937E+002	
-9.73793518E+000	-1.17685452E+002	
-9.71722187E+000	-1.17680386E+002	
-9.69650857E+000	-1.17685311E+002	
-9.67579526E+000	-1.17751985E+002	
-9.65508196E+000	-1.17733689E+002	
-9.63436865E+000	-1.17681699E+002	
-9.61365535E+000	-1.17676500E+002	
-9.59294204E+000	-1.17689341E+002	
-9.57222874E+000	-1.17726840E+002	
-9.55151543E+000	-1.17758067E+002	
-9.53080213E+000	-1.17737767E+002	
-9.51008882E+000	-1.17766074E+002	
-9.48937552E+000	-1.17786539E+002	
-9.46866221E+000	-1.17771852E+002	
-9.44794890E+000	-1.17747025E+002	
-9.42723560E+000	-1.17699571E+002	
-9.40652229E+000	-1.17689799E+002	
-9.38580899E+000	-1.17661558E+002	
-9.36509568E+000	-1.17658005E+002	
-9.34438238E+000	-1.17613231E+002	
-9.32366907E+000	-1.17583656E+002	
-9.30295577E+000	-1.17590475E+002	
-9.28224246E+000	-1.17599275E+002	
-9.26152916E+000	-1.17552566E+002	
-9.24081585E+000	-1.17489670E+002	
-9.22010255E+000	-1.17468728E+002	
-9.19938924E+000	-1.17504007E+002	
-9.17867594E+000	-1.17476774E+002	
-9.15796263E+000	-1.17463672E+002	
-9.13724932E+000	-1.17523877E+002	
-9.11653602E+000	-1.17532136E+002	
-9.09582271E+000	-1.17510731E+002	
-9.07510941E+000	-1.17505564E+002	
-9.05439610E+000	-1.17493285E+002	
-9.03368280E+000	-1.17380129E+002	
-9.01296949E+000	-1.17366138E+002	
-8.99225619E+000	-1.17364901E+002	
-8.97154288E+000	-1.17406711E+002	
-8.95082958E+000	-1.17420176E+002	
-8.93011627E+000	-1.17440031E+002	
-8.90940297E+000	-1.17462238E+002	
-8.88868966E+000	-1.17479174E+002	
-8.86797636E+000	-1.17461179E+002	
-8.84726305E+000	-1.17465279E+002	
-8.82654974E+000	-1.17448334E+002	
-8.80583644E+000	-1.17469809E+002	
-8.78512313E+000	-1.17465333E+002	
-8.76440983E+000	-1.17470199E+002	
-8.74369652E+000	-1.17532207E+002	
-8.72298322E+000	-1.17556547E+002	
-8.70226991E+000	-1.17493697E+002	
-8.68155661E+000	-1.17469579E+002	
-8.66084330E+000	-1.17503075E+002	
-8.64013000E+000	-1.17456665E+002	
-8.61941669E+000	-1.17406972E+002	
-8.59870339E+000	-1.17427126E+002	
-8.57799008E+000	-1.17424185E+002	
-8.55727678E+000	-1.17392169E+002	
-8.53656347E+000	-1.17501994E+002	
-8.51585017E+000	-1.17514483E+002	
-8.49513686E+000	-1.17512874E+002	
-8.47442355E+000	-1.17504046E+002	
-8.45371025E+000	-1.17522520E+002	
-8.43299694E+000	-1.17560443E+002	
-8.41228364E+000	-1.17535287E+002	
-8.39157033E+000	-1.17526702E+002	
-8.37085703E+000	-1.17572293E+002	
-8.35014372E+000	-1.17590747E+002	
-8.32943042E+000	-1.17619451E+002	
-8.30871711E+000	-1.17568919E+002	
-8.28800381E+000	-1.17602395E+002	
-8.26729050E+000	-1.17602191E+002	
-8.24657720E+000	-1.17595778E+002	
-8.22586389E+000	-1.17575647E+002	
-8.20515059E+000	-1.17625520E+002	
-8.18443728E+000	-1.17626357E+002	
-8.16372397E+000	-1.17612767E+002	
-8.14301067E+000	-1.17578468E+002	
-8.12229736E+000	-1.17594349E+002	
-8.10158406E+000	-1.17602612E+002	
-8.08087075E+000	-1.17607426E+002	
-8.06015745E+000	-1.17583690E+002	
-8.03944414E+000	-1.17525813E+002	
-8.01873084E+000	-1.17544659E+002	
-7.99801753E+000	-1.17544307E+002	
-7.97730423E+000	-1.17537072E+002	
-7.95659092E+000	-1.17508027E+002	
-7.93587762E+000	-1.17524185E+002	
-7.91516431E+000	-1.17557465E+002	
-7.89445101E+000	-1.17548234E+002	
-7.87373770E+000	-1.17528009E+002	
-7.85302439E+000	-1.17524838E+002	
-7.83231109E+000	-1.17502108E+002	
-7.81159778E+000	-1.17544658E+002	
-7.79088448E+000	-1.17565362E+002	
-7.77017117E+000	-1.17581427E+002	
-7.74945787E+000	-1.17593073E+002	
-7.72874456E+000	-1.17611139E+002	
-7.70803126E+000	-1.17575275E+002	
-7.68731795E+000	-1.17605950E+002	
-7.66660465E+000	-1.17597733E+002	
-7.64589134E+000	-1.17608374E+002	
-7.62517804E+000	-1.17615153E+002	
-7.60446473E+000	-1.17532928E+002	
-7.58375143E+000	-1.17544779E+002	
-7.56303812E+000	-1.17584170E+002	
-7.54232482E+000	-1.17657805E+002	
-7.52161151E+000	-1.17647551E+002	
-7.50089820E+000	-1.17654971E+002	
-7.48018490E+000	-1.17634979E+002	
-7.45947159E+000	-1.17681044E+002	
-7.43875829E+000	-1.17609263E+002	
-7.41804498E+000	-1.17535922E+002	
-7.39733168E+000	-1.17571280E+002	
-7.37661837E+000	-1.17573840E+002	
-7.35590507E+000	-1.17581563E+002	
-7.33519176E+000	-1.17605796E+002	
-7.31447846E+000	-1.17631549E+002	
-7.29376515E+000	-1.17616569E+002	
-7.27305185E+000	-1.17592294E+002	
-7.25233854E+000	-1.17618456E+002	
-7.23162524E+000	-1.17617195E+002	
-7.21091193E+000	-1.17601356E+002	
-7.19019862E+000	-1.17592111E+002	
-7.16948532E+000	-1.17636084E+002	
-7.14877201E+000	-1.17693958E+002	
-7.12805871E+000	-1.17737482E+002	
-7.10734540E+000	-1.17817907E+002	
-7.08663210E+000	-1.17860031E+002	
-7.06591879E+000	-1.17836537E+002	
-7.04520549E+000	-1.17825376E+002	
-7.02449218E+000	-1.17803537E+002	
-7.00377888E+000	-1.17777520E+002	
-6.98306557E+000	-1.17809932E+002	
-6.96235227E+000	-1.17774006E+002	
-6.94163896E+000	-1.17809274E+002	
-6.92092566E+000	-1.17866708E+002	
-6.90021235E+000	-1.17875005E+002	
-6.87949904E+000	-1.17852720E+002	
-6.85878574E+000	-1.17836900E+002	
-6.83807243E+000	-1.17860585E+002	
-6.81735913E+000	-1.17875050E+002	
-6.79664582E+000	-1.17829094E+002	
-6.77593252E+000	-1.17854757E+002	
-6.75521921E+000	-1.17802523E+002	
-6.73450591E+000	-1.17798212E+002	
-6.71379260E+000	-1.17783240E+002	
-6.69307930E+000	-1.17782009E+002	
-6.67236599E+000	-1.17742482E+002	
-6.65165269E+000	-1.17728922E+002	
-6.63093938E+000	-1.17737573E+002	
-6.61022608E+000	-1.17755051E+002	
-6.58951277E+000	-1.17746346E+002	
-6.56879947E+000	-1.17731184E+002	
-6.54808616E+000	-1.17697081E+002	
-6.52737285E+000	-1.17679237E+002	
-6.50665955E+000	-1.17710437E+002	
-6.48594624E+000	-1.17750504E+002	
-6.46523294E+000	-1.17783343E+002	
-6.44451963E+000	-1.17713980E+002	
-6.42380633E+000	-1.17665279E+002	
-6.40309302E+000	-1.17651325E+002	
-6.38237972E+000	-1.17629788E+002	
-6.36166641E+000	-1.17627983E+002	
-6.34095311E+000	-1.17628046E+002	
-6.32023980E+000	-1.17619955E+002	
-6.29952650E+000	-1.17630813E+002	
-6.27881319E+000	-1.17598887E+002	
-6.25809989E+000	-1.17621140E+002	
-6.23738658E+000	-1.17613739E+002	
-6.21667327E+000	-1.17598245E+002	
-6.19595997E+000	-1.17610528E+002	
-6.17524666E+000	-1.17597778E+002	
-6.15453336E+000	-1.17593520E+002	
-6.13382005E+000	-1.17574885E+002	
-6.11310675E+000	-1.17578041E+002	
-6.09239344E+000	-1.17573822E+002	
-6.07168014E+000	-1.17528130E+002	
-6.05096683E+000	-1.17603006E+002	
-6.03025353E+000	-1.17607971E+002	
-6.00954022E+000	-1.17569296E+002	
-5.98882692E+000	-1.17514427E+002	
-5.96811361E+000	-1.17516981E+002	
-5.94740031E+000	-1.17566048E+002	
-5.92668700E+000	-1.17617331E+002	
-5.90597369E+000	-1.17633128E+002	
-5.88526039E+000	-1.17676329E+002	
-5.86454708E+000	-1.17701836E+002	
-5.84383378E+000	-1.17670619E+002	
-5.82312047E+000	-1.17677121E+002	
-5.80240717E+000	-1.17647677E+002	
-5.78169386E+000	-1.17666304E+002	
-5.76098056E+000	-1.17667650E+002	
-5.74026725E+000	-1.17667229E+002	
-5.71955395E+000	-1.17700909E+002	
-5.69884064E+000	-1.17697307E+002	
-5.67812734E+000	-1.17722080E+002	
-5.65741403E+000	-1.17722298E+002	
-5.63670073E+000	-1.17734158E+002	
-5.61598742E+000	-1.17707301E+002	
-5.59527412E+000	-1.17663500E+002	
-5.57456081E+000	-1.17726100E+002	
-5.55384750E+000	-1.17651029E+002	
-5.53313420E+000	-1.17585438E+002	
-5.51242089E+000	-1.17611719E+002	
-5.49170759E+000	-1.17625041E+002	
-5.47099428E+000	-1.17613464E+002	
-5.45028098E+000	-1.17660368E+002	
-5.42956767E+000	-1.17696797E+002	
-5.40885437E+000	-1.17676264E+002	
-5.38814106E+000	-1.17664018E+002	
-5.36742776E+000	-1.17635680E+002	
-5.34671445E+000	-1.17663255E+002	
-5.32600115E+000	-1.17670625E+002	
-5.30528784E+000	-1.17685149E+002	
-5.28457454E+000	-1.17670574E+002	
-5.26386123E+000	-1.17649812E+002	
-5.24314792E+000	-1.17591907E+002	
-5.22243462E+000	-1.17571076E+002	
-5.20172131E+000	-1.17572811E+002	
-5.18100801E+000	-1.17537728E+002	
-5.16029470E+000	-1.17535851E+002	
-5.13958140E+000	-1.17489221E+002	
-5.11886809E+000	-1.17465542E+002	
-5.09815479E+000	-1.17480293E+002	
-5.07744148E+000	-1.17446853E+002	
-5.05672818E+000	-1.17521964E+002	
-5.03601487E+000	-1.17552728E+002	
-5.01530157E+000	-1.17590410E+002	
-4.99458826E+000	-1.17593707E+002	
-4.97387496E+000	-1.17534640E+002	
-4.95316165E+000	-1.17533625E+002	
-4.93244834E+000	-1.17492650E+002	
-4.91173504E+000	-1.17485146E+002	
-4.89102173E+000	-1.17477734E+002	
-4.87030843E+000	-1.17504200E+002	
-4.84959512E+000	-1.17491300E+002	
-4.82888182E+000	-1.17449917E+002	
-4.80816851E+000	-1.17442942E+002	
-4.78745521E+000	-1.17450714E+002	
-4.76674190E+000	-1.17475229E+002	
-4.74602860E+000	-1.17489910E+002	
-4.72531529E+000	-1.17542368E+002	
-4.70460199E+000	-1.17535758E+002	
-4.68388868E+000	-1.17571677E+002	
-4.66317538E+000	-1.17551253E+002	
-4.64246207E+000	-1.17597936E+002	
-4.62174877E+000	-1.17643547E+002	
-4.60103546E+000	-1.17670527E+002	
-4.58032215E+000	-1.17691340E+002	
-4.55960885E+000	-1.17649698E+002	
-4.53889554E+000	-1.17681298E+002	
-4.51818224E+000	-1.17615196E+002	
-4.49746893E+000	-1.17573609E+002	
-4.47675563E+000	-1.17620979E+002	
-4.45604232E+000	-1.17601450E+002	
-4.43532902E+000	-1.17602027E+002	
-4.41461571E+000	-1.17592355E+002	
-4.39390241E+000	-1.17602836E+002	
-4.37318910E+000	-1.17608630E+002	
-4.35247580E+000	-1.17594563E+002	
-4.33176249E+000	-1.17588802E+002	
-4.31104919E+000	-1.17583833E+002	
-4.29033588E+000	-1.17574309E+002	
-4.26962257E+000	-1.17567780E+002	
-4.24890927E+000	-1.17612985E+002	
-4.22819596E+000	-1.17619411E+002	
-4.20748266E+000	-1.17650974E+002	
-4.18676935E+000	-1.17619757E+002	
-4.16605605E+000	-1.17627438E+002	
-4.14534274E+000	-1.17638739E+002	
-4.12462944E+000	-1.17593756E+002	
-4.10391613E+000	-1.17592469E+002	
-4.08320283E+000	-1.17585078E+002	
-4.06248952E+000	-1.17578991E+002	
-4.04177622E+000	-1.17530298E+002	
-4.02106291E+000	-1.17558850E+002	
-4.00034961E+000	-1.17558743E+002	
-3.97963630E+000	-1.17515446E+002	
-3.95892299E+000	-1.17519911E+002	
-3.93820969E+000	-1.17486813E+002	
-3.91749638E+000	-1.17499251E+002	
-3.89678308E+000	-1.17473620E+002	
-3.87606977E+000	-1.17413191E+002	
-3.85535647E+000	-1.17418271E+002	
-3.83464316E+000	-1.17407422E+002	
-3.81392986E+000	-1.17408375E+002	
-3.79321655E+000	-1.17442225E+002	
-3.77250325E+000	-1.17398853E+002	
-3.75178994E+000	-1.17414576E+002	
-3.73107664E+000	-1.17416981E+002	
-3.71036333E+000	-1.17360272E+002	
-3.68965003E+000	-1.17371662E+002	
-3.66893672E+000	-1.17425307E+002	
-3.64822342E+000	-1.17388387E+002	
-3.62751011E+000	-1.17411610E+002	
-3.60679680E+000	-1.17409509E+002	
-3.58608350E+000	-1.17410922E+002	
-3.56537019E+000	-1.17436899E+002	
-3.54465689E+000	-1.17445322E+002	
-3.52394358E+000	-1.17470518E+002	
-3.50323028E+000	-1.17511177E+002	
-3.48251697E+000	-1.17549427E+002	
-3.46180367E+000	-1.17589282E+002	
-3.44109036E+000	-1.17612056E+002	
-3.42037706E+000	-1.17644170E+002	
-3.39966375E+000	-1.17686517E+002	
-3.37895045E+000	-1.17737524E+002	
-3.35823714E+000	-1.17729655E+002	
-3.33752384E+000	-1.17742744E+002	
-3.31681053E+000	-1.17743519E+002	
-3.29609722E+000	-1.17717426E+002	
-3.27538392E+000	-1.17731237E+002	
-3.25467061E+000	-1.17743271E+002	
-3.23395731E+000	-1.17737206E+002	
-3.21324400E+000	-1.17762402E+002	
-3.19253070E+000	-1.17769359E+002	
-3.17181739E+000	-1.17734427E+002	
-3.15110409E+000	-1.17720890E+002	
-3.13039078E+000	-1.17713425E+002	
-3.10967748E+000	-1.17755156E+002	
-3.08896417E+000	-1.17732710E+002	
-3.06825087E+000	-1.17711076E+002	
-3.04753756E+000	-1.17743318E+002	
-3.02682426E+000	-1.17723201E+002	
-3.00611095E+000	-1.17652604E+002	
-2.98539764E+000	-1.17695739E+002	
-2.96468434E+000	-1.17658235E+002	
-2.94397103E+000	-1.17635141E+002	
-2.92325773E+000	-1.17591323E+002	
-2.90254442E+000	-1.17580228E+002	
-2.88183112E+000	-1.17595875E+002	
-2.86111781E+000	-1.17642002E+002	
-2.84040451E+000	-1.17681069E+002	
-2.81969120E+000	-1.17715543E+002	
-2.79897790E+000	-1.17783749E+002	
-2.77826459E+000	-1.17759822E+002	
-2.75755129E+000	-1.17731534E+002	
-2.73683798E+000	-1.17745115E+002	
-2.71612468E+000	-1.17695855E+002	
-2.69541137E+000	-1.17687120E+002	
-2.67469807E+000	-1.17754127E+002	
-2.65398476E+000	-1.17782735E+002	
-2.63327145E+000	-1.17777956E+002	
-2.61255815E+000	-1.17721406E+002	
-2.59184484E+000	-1.17731835E+002	
-2.57113154E+000	-1.17733708E+002	
-2.55041823E+000	-1.17725172E+002	
-2.52970493E+000	-1.17778525E+002	
-2.50899162E+000	-1.17850944E+002	
-2.48827832E+000	-1.17838666E+002	
-2.46756501E+000	-1.17846930E+002	
-2.44685171E+000	-1.17842989E+002	
-2.42613840E+000	-1.17877134E+002	
-2.40542510E+000	-1.17900748E+002	
-2.38471179E+000	-1.17888230E+002	
-2.36399849E+000	-1.17871514E+002	
-2.34328518E+000	-1.17819922E+002	
-2.32257187E+000	-1.17777427E+002	
-2.30185857E+000	-1.17709049E+002	
-2.28114526E+000	-1.17713688E+002	
-2.26043196E+000	-1.17781659E+002	
-2.23971865E+000	-1.17760835E+002	
-2.21900535E+000	-1.17810015E+002	
-2.19829204E+000	-1.17835156E+002	
-2.17757874E+000	-1.17789176E+002	
-2.15686543E+000	-1.17764865E+002	
-2.13615213E+000	-1.17808928E+002	
-2.11543882E+000	-1.17822048E+002	
-2.09472552E+000	-1.17838898E+002	
-2.07401221E+000	-1.17816737E+002	
-2.05329891E+000	-1.17772106E+002	
-2.03258560E+000	-1.17782138E+002	
-2.01187229E+000	-1.17777049E+002	
-1.99115899E+000	-1.17776404E+002	
-1.97044568E+000	-1.17723098E+002	
-1.94973238E+000	-1.17744359E+002	
-1.92901907E+000	-1.17725313E+002	
-1.90830577E+000	-1.17671813E+002	
-1.88759246E+000	-1.17662171E+002	
-1.86687916E+000	-1.17680153E+002	
-1.84616585E+000	-1.17652169E+002	
-1.82545255E+000	-1.17728145E+002	
-1.80473924E+000	-1.17728749E+002	
-1.78402594E+000	-1.17760635E+002	
-1.76331263E+000	-1.17765366E+002	
-1.74259933E+000	-1.17725902E+002	
-1.72188602E+000	-1.17722497E+002	
-1.70117272E+000	-1.17780672E+002	
-1.68045941E+000	-1.17803283E+002	
-1.65974610E+000	-1.17761153E+002	
-1.63903280E+000	-1.17728558E+002	
-1.61831949E+000	-1.17774219E+002	
-1.59760619E+000	-1.17780234E+002	
-1.57689288E+000	-1.17793626E+002	
-1.55617958E+000	-1.17853942E+002	
-1.53546627E+000	-1.17837535E+002	
-1.51475297E+000	-1.17827996E+002	
-1.49403966E+000	-1.17790601E+002	
-1.47332636E+000	-1.17816740E+002	
-1.45261305E+000	-1.17782851E+002	
-1.43189975E+000	-1.17776774E+002	
-1.41118644E+000	-1.17763622E+002	
-1.39047314E+000	-1.17781108E+002	
-1.36975983E+000	-1.17752526E+002	
-1.34904652E+000	-1.17751865E+002	
-1.32833322E+000	-1.17704237E+002	
-1.30761991E+000	-1.17666900E+002	
-1.28690661E+000	-1.17663644E+002	
-1.26619330E+000	-1.17648416E+002	
-1.24548000E+000	-1.17689921E+002	
-1.22476669E+000	-1.17730558E+002	
-1.20405339E+000	-1.17637776E+002	
-1.18334008E+000	-1.17632758E+002	
-1.16262678E+000	-1.17698442E+002	
-1.14191347E+000	-1.17717415E+002	
-1.12120017E+000	-1.17710241E+002	
-1.10048686E+000	-1.17686585E+002	
-1.07977356E+000	-1.17688411E+002	
-1.05906025E+000	-1.17711403E+002	
-1.03834694E+000	-1.17690200E+002	
-1.01763364E+000	-1.17645927E+002	
-9.96920334E-001	-1.17602508E+002	
-9.76207029E-001	-1.17586574E+002	
-9.55493724E-001	-1.17597590E+002	
-9.34780418E-001	-1.17620341E+002	
-9.14067113E-001	-1.17685943E+002	
-8.93353808E-001	-1.17683110E+002	
-8.72640502E-001	-1.17664996E+002	
-8.51927197E-001	-1.17703738E+002	
-8.31213892E-001	-1.17730472E+002	
-8.10500586E-001	-1.17778907E+002	
-7.89787281E-001	-1.17802267E+002	
-7.69073976E-001	-1.17818724E+002	
-7.48360671E-001	-1.17800526E+002	
-7.27647365E-001	-1.17789307E+002	
-7.06934060E-001	-1.17827647E+002	
-6.86220755E-001	-1.17850578E+002	
-6.65507449E-001	-1.17880306E+002	
-6.44794144E-001	-1.17882036E+002	
-6.24080839E-001	-1.17848469E+002	
-6.03367533E-001	-1.17834057E+002	
-5.82654228E-001	-1.17811787E+002	
-5.61940923E-001	-1.17759100E+002	
-5.41227617E-001	-1.17724168E+002	
-5.20514312E-001	-1.17734856E+002	
-4.99801007E-001	-1.17806529E+002	
-4.79087701E-001	-1.17869693E+002	
-4.58374396E-001	-1.17891298E+002	
-4.37661091E-001	-1.17853782E+002	
-4.16947785E-001	-1.17801673E+002	
-3.96234480E-001	-1.17789177E+002	
-3.75521175E-001	-1.17803780E+002	
-3.54807869E-001	-1.17803327E+002	
-3.34094564E-001	-1.17810417E+002	
-3.13381259E-001	-1.17839739E+002	
-2.92667954E-001	-1.17837651E+002	
-2.71954648E-001	-1.17799283E+002	
-2.51241343E-001	-1.13500700E+002	
-2.30528038E-001	-1.13236018E+002	
-2.09814732E-001	-1.13226853E+002	
-1.89101427E-001	-1.13193789E+002	
-1.68388122E-001	-1.13151207E+002	
-1.47674816E-001	-1.13136506E+002	
-1.26961511E-001	-1.13134308E+002	
-1.06248206E-001	-1.13097826E+002	
-8.55349003E-002	-1.13087963E+002	
-6.48215950E-002	-1.13080644E+002	
-4.41082897E-002	-1.13088571E+002	
-2.33949844E-002	-1.13080483E+002	
-2.68167905E-003	-1.13076997E+002	
1.80316263E-002	-1.13044789E+002	
3.87449316E-002	-1.13027370E+002	
5.94582369E-002	-1.13030303E+002	
8.01715422E-002	-1.13041459E+002	
1.00884848E-001	-1.13037791E+002	
1.21598153E-001	-1.13007388E+002	
1.42311458E-001	-1.12992830E+002	
1.63024763E-001	-1.12986797E+002	
1.83738069E-001	-1.12965817E+002	
2.04451374E-001	-1.12937807E+002	
2.25164679E-001	-1.12943242E+002	
2.45877985E-001	-1.15650095E+002	
2.66591290E-001	-1.17006396E+002	
2.87304595E-001	-1.17009703E+002	
3.08017901E-001	-1.17063519E+002	
3.28731206E-001	-1.17119825E+002	
3.49444511E-001	-1.17130299E+002	
3.70157817E-001	-1.17159384E+002	
3.90871122E-001	-1.17232093E+002	
4.11584427E-001	-1.17204194E+002	
4.32297733E-001	-1.17192953E+002	
4.53011038E-001	-1.17184851E+002	
4.73724343E-001	-1.17203468E+002	
4.94437649E-001	-1.17197538E+002	
5.15150954E-001	-1.17235927E+002	
5.35864259E-001	-1.17246099E+002	
5.56577565E-001	-1.17287049E+002	
5.77290870E-001	-1.17242056E+002	
5.98004175E-001	-1.17215558E+002	
6.18717481E-001	-1.17262434E+002	
6.39430786E-001	-1.17271859E+002	
6.60144091E-001	-1.17251656E+002	
6.80857396E-001	-1.17287173E+002	
7.01570702E-001	-1.17319243E+002	
7.22284007E-001	-1.17327349E+002	
7.42997312E-001	-1.17302716E+002	
7.63710618E-001	-1.17306896E+002	
7.84423923E-001	-1.17276184E+002	
8.05137228E-001	-1.17253315E+002	
8.25850534E-001	-1.17231998E+002	
8.46563839E-001	-1.17205342E+002	
8.67277144E-001	-1.17189071E+002	
8.87990450E-001	-1.17175788E+002	
9.08703755E-001	-1.17275955E+002	
9.29417060E-001	-1.17328258E+002	
9.50130366E-001	-1.17355832E+002	
9.70843671E-001	-1.17311147E+002	
9.91556976E-001	-1.17295267E+002	
1.01227028E+000	-1.17321479E+002	
1.03298359E+000	-1.17318464E+002	
1.05369689E+000	-1.17284482E+002	
1.07441020E+000	-1.17300028E+002	
1.09512350E+000	-1.17310283E+002	
1.11583681E+000	-1.17366437E+002	
1.13655011E+000	-1.17375476E+002	
1.15726342E+000	-1.17384836E+002	
1.17797672E+000	-1.17351681E+002	
1.19869003E+000	-1.17390015E+002	
1.21940333E+000	-1.17366260E+002	
1.24011664E+000	-1.17380366E+002	
1.26082995E+000	-1.17372999E+002	
1.28154325E+000	-1.17386167E+002	
1.30225656E+000	-1.17399562E+002	
1.32296986E+000	-1.17395310E+002	
1.34368317E+000	-1.17416566E+002	
1.36439647E+000	-1.17477114E+002	
1.38510978E+000	-1.17488887E+002	
1.40582308E+000	-1.17419646E+002	
1.42653639E+000	-1.17418953E+002	
1.44724969E+000	-1.17407048E+002	
1.46796300E+000	-1.17420133E+002	
1.48867630E+000	-1.17446466E+002	
1.50938961E+000	-1.17421529E+002	
1.53010291E+000	-1.17418448E+002	
1.55081622E+000	-1.17406398E+002	
1.57152953E+000	-1.17403470E+002	
