Acquired on 4/26/2021 at 16:09:07
Calibrated on 4/26/2021 at 14:40:00
Device Descriptor:  [none]
Scan Range (nm):  1539.624  --  1560.517
Measurement Type:  Reflection
Group Index:  1.500
Gain:  24 dB
Domain:  Time
Spatial Resolution (mm):  50.000000
Frequency domain window was applied to measurement data.
Number of Data Points (in this file):  16384
NOTE: Data stored in this file is decimated by a factor of 64.

Time (ns)	Amplitude (dB)	
-1.00072081E+001	-1.20249239E+002	
-9.98649484E+000	-1.19923008E+002	
-9.96578154E+000	-1.19599779E+002	
-9.94506823E+000	-1.19344376E+002	
-9.92435493E+000	-1.19119041E+002	
-9.90364162E+000	-1.18887700E+002	
-9.88292832E+000	-1.18674929E+002	
-9.86221501E+000	-1.18457292E+002	
-9.84150171E+000	-1.18265520E+002	
-9.82078840E+000	-1.18088872E+002	
-9.80007509E+000	-1.17885818E+002	
-9.77936179E+000	-1.17701883E+002	
-9.75864848E+000	-1.17647834E+002	
-9.73793518E+000	-1.17681938E+002	
-9.71722187E+000	-1.17684267E+002	
-9.69650857E+000	-1.17696207E+002	
-9.67579526E+000	-1.17769333E+002	
-9.65508196E+000	-1.17754427E+002	
-9.63436865E+000	-1.17699908E+002	
-9.61365535E+000	-1.17700560E+002	
-9.59294204E+000	-1.17714637E+002	
-9.57222874E+000	-1.17754518E+002	
-9.55151543E+000	-1.17781124E+002	
-9.53080213E+000	-1.17764072E+002	
-9.51008882E+000	-1.17797351E+002	
-9.48937552E+000	-1.17815893E+002	
-9.46866221E+000	-1.17797454E+002	
-9.44794890E+000	-1.17769822E+002	
-9.42723560E+000	-1.17716941E+002	
-9.40652229E+000	-1.17700934E+002	
-9.38580899E+000	-1.17666326E+002	
-9.36509568E+000	-1.17659483E+002	
-9.34438238E+000	-1.17616167E+002	
-9.32366907E+000	-1.17586381E+002	
-9.30295577E+000	-1.17590578E+002	
-9.28224246E+000	-1.17594293E+002	
-9.26152916E+000	-1.17544964E+002	
-9.24081585E+000	-1.17481086E+002	
-9.22010255E+000	-1.17461095E+002	
-9.19938924E+000	-1.17488597E+002	
-9.17867594E+000	-1.17456852E+002	
-9.15796263E+000	-1.17440964E+002	
-9.13724932E+000	-1.17503171E+002	
-9.11653602E+000	-1.17510885E+002	
-9.09582271E+000	-1.17492287E+002	
-9.07510941E+000	-1.17486737E+002	
-9.05439610E+000	-1.17475778E+002	
-9.03368280E+000	-1.17363721E+002	
-9.01296949E+000	-1.17353366E+002	
-8.99225619E+000	-1.17360682E+002	
-8.97154288E+000	-1.17410479E+002	
-8.95082958E+000	-1.17427249E+002	
-8.93011627E+000	-1.17452024E+002	
-8.90940297E+000	-1.17481928E+002	
-8.88868966E+000	-1.17501760E+002	
-8.86797636E+000	-1.17487931E+002	
-8.84726305E+000	-1.17492520E+002	
-8.82654974E+000	-1.17470033E+002	
-8.80583644E+000	-1.17493058E+002	
-8.78512313E+000	-1.17488214E+002	
-8.76440983E+000	-1.17493623E+002	
-8.74369652E+000	-1.17553221E+002	
-8.72298322E+000	-1.17574076E+002	
-8.70226991E+000	-1.17506955E+002	
-8.68155661E+000	-1.17489940E+002	
-8.66084330E+000	-1.17519667E+002	
-8.64013000E+000	-1.17473249E+002	
-8.61941669E+000	-1.17425119E+002	
-8.59870339E+000	-1.17446895E+002	
-8.57799008E+000	-1.17441398E+002	
-8.55727678E+000	-1.17416314E+002	
-8.53656347E+000	-1.17528575E+002	
-8.51585017E+000	-1.17538014E+002	
-8.49513686E+000	-1.17536707E+002	
-8.47442355E+000	-1.17524735E+002	
-8.45371025E+000	-1.17539113E+002	
-8.43299694E+000	-1.17566081E+002	
-8.41228364E+000	-1.17531619E+002	
-8.39157033E+000	-1.17519434E+002	
-8.37085703E+000	-1.17566723E+002	
-8.35014372E+000	-1.17582901E+002	
-8.32943042E+000	-1.17612986E+002	
-8.30871711E+000	-1.17559473E+002	
-8.28800381E+000	-1.17593268E+002	
-8.26729050E+000	-1.17595889E+002	
-8.24657720E+000	-1.17588092E+002	
-8.22586389E+000	-1.17561789E+002	
-8.20515059E+000	-1.17614543E+002	
-8.18443728E+000	-1.17608935E+002	
-8.16372397E+000	-1.17593064E+002	
-8.14301067E+000	-1.17561171E+002	
-8.12229736E+000	-1.17574715E+002	
-8.10158406E+000	-1.17577306E+002	
-8.08087075E+000	-1.17574688E+002	
-8.06015745E+000	-1.17551123E+002	
-8.03944414E+000	-1.17497324E+002	
-8.01873084E+000	-1.17517611E+002	
-7.99801753E+000	-1.17513993E+002	
-7.97730423E+000	-1.17507285E+002	
-7.95659092E+000	-1.17478794E+002	
-7.93587762E+000	-1.17495517E+002	
-7.91516431E+000	-1.17531979E+002	
-7.89445101E+000	-1.17524358E+002	
-7.87373770E+000	-1.17501976E+002	
-7.85302439E+000	-1.17496567E+002	
-7.83231109E+000	-1.17472277E+002	
-7.81159778E+000	-1.17516485E+002	
-7.79088448E+000	-1.17538079E+002	
-7.77017117E+000	-1.17548432E+002	
-7.74945787E+000	-1.17563875E+002	
-7.72874456E+000	-1.17587145E+002	
-7.70803126E+000	-1.17548421E+002	
-7.68731795E+000	-1.17580828E+002	
-7.66660465E+000	-1.17579376E+002	
-7.64589134E+000	-1.17585921E+002	
-7.62517804E+000	-1.17587619E+002	
-7.60446473E+000	-1.17513270E+002	
-7.58375143E+000	-1.17533475E+002	
-7.56303812E+000	-1.17568601E+002	
-7.54232482E+000	-1.17637941E+002	
-7.52161151E+000	-1.17622634E+002	
-7.50089820E+000	-1.17633526E+002	
-7.48018490E+000	-1.17614461E+002	
-7.45947159E+000	-1.17659324E+002	
-7.43875829E+000	-1.17593899E+002	
-7.41804498E+000	-1.17518199E+002	
-7.39733168E+000	-1.17556161E+002	
-7.37661837E+000	-1.17554544E+002	
-7.35590507E+000	-1.17567939E+002	
-7.33519176E+000	-1.17597784E+002	
-7.31447846E+000	-1.17622877E+002	
-7.29376515E+000	-1.17604586E+002	
-7.27305185E+000	-1.17580153E+002	
-7.25233854E+000	-1.17605482E+002	
-7.23162524E+000	-1.17600103E+002	
-7.21091193E+000	-1.17589367E+002	
-7.19019862E+000	-1.17582021E+002	
-7.16948532E+000	-1.17627005E+002	
-7.14877201E+000	-1.17694999E+002	
-7.12805871E+000	-1.17743089E+002	
-7.10734540E+000	-1.17822565E+002	
-7.08663210E+000	-1.17859177E+002	
-7.06591879E+000	-1.17832927E+002	
-7.04520549E+000	-1.17818943E+002	
-7.02449218E+000	-1.17799542E+002	
-7.00377888E+000	-1.17768739E+002	
-6.98306557E+000	-1.17793565E+002	
-6.96235227E+000	-1.17757166E+002	
-6.94163896E+000	-1.17797880E+002	
-6.92092566E+000	-1.17856152E+002	
-6.90021235E+000	-1.17866290E+002	
-6.87949904E+000	-1.17850876E+002	
-6.85878574E+000	-1.17828734E+002	
-6.83807243E+000	-1.17847789E+002	
-6.81735913E+000	-1.17860816E+002	
-6.79664582E+000	-1.17816771E+002	
-6.77593252E+000	-1.17850442E+002	
-6.75521921E+000	-1.17797603E+002	
-6.73450591E+000	-1.17802849E+002	
-6.71379260E+000	-1.17795153E+002	
-6.69307930E+000	-1.17789671E+002	
-6.67236599E+000	-1.17748894E+002	
-6.65165269E+000	-1.17730493E+002	
-6.63093938E+000	-1.17732008E+002	
-6.61022608E+000	-1.17744739E+002	
-6.58951277E+000	-1.17738697E+002	
-6.56879947E+000	-1.17727312E+002	
-6.54808616E+000	-1.17701266E+002	
-6.52737285E+000	-1.17686138E+002	
-6.50665955E+000	-1.17723070E+002	
-6.48594624E+000	-1.17763931E+002	
-6.46523294E+000	-1.17796594E+002	
-6.44451963E+000	-1.17726545E+002	
-6.42380633E+000	-1.17683439E+002	
-6.40309302E+000	-1.17664645E+002	
-6.38237972E+000	-1.17634750E+002	
-6.36166641E+000	-1.17638944E+002	
-6.34095311E+000	-1.17646399E+002	
-6.32023980E+000	-1.17635691E+002	
-6.29952650E+000	-1.17653581E+002	
-6.27881319E+000	-1.17621746E+002	
-6.25809989E+000	-1.17641687E+002	
-6.23738658E+000	-1.17631189E+002	
-6.21667327E+000	-1.17600158E+002	
-6.19595997E+000	-1.17608975E+002	
-6.17524666E+000	-1.17593368E+002	
-6.15453336E+000	-1.17593370E+002	
-6.13382005E+000	-1.17581325E+002	
-6.11310675E+000	-1.17589205E+002	
-6.09239344E+000	-1.17584235E+002	
-6.07168014E+000	-1.17543188E+002	
-6.05096683E+000	-1.17609090E+002	
-6.03025353E+000	-1.17606759E+002	
-6.00954022E+000	-1.17571296E+002	
-5.98882692E+000	-1.17521508E+002	
-5.96811361E+000	-1.17531847E+002	
-5.94740031E+000	-1.17571103E+002	
-5.92668700E+000	-1.17607671E+002	
-5.90597369E+000	-1.17618590E+002	
-5.88526039E+000	-1.17661737E+002	
-5.86454708E+000	-1.17681860E+002	
-5.84383378E+000	-1.17646083E+002	
-5.82312047E+000	-1.17658533E+002	
-5.80240717E+000	-1.17620098E+002	
-5.78169386E+000	-1.17628696E+002	
-5.76098056E+000	-1.17626092E+002	
-5.74026725E+000	-1.17622093E+002	
-5.71955395E+000	-1.17660959E+002	
-5.69884064E+000	-1.17664062E+002	
-5.67812734E+000	-1.17682106E+002	
-5.65741403E+000	-1.17682952E+002	
-5.63670073E+000	-1.17689978E+002	
-5.61598742E+000	-1.17664651E+002	
-5.59527412E+000	-1.17618015E+002	
-5.57456081E+000	-1.17674528E+002	
-5.55384750E+000	-1.17602359E+002	
-5.53313420E+000	-1.17542612E+002	
-5.51242089E+000	-1.17562582E+002	
-5.49170759E+000	-1.17572307E+002	
-5.47099428E+000	-1.17548508E+002	
-5.45028098E+000	-1.17597335E+002	
-5.42956767E+000	-1.17648249E+002	
-5.40885437E+000	-1.17637294E+002	
-5.38814106E+000	-1.17636214E+002	
-5.36742776E+000	-1.17613531E+002	
-5.34671445E+000	-1.17644763E+002	
-5.32600115E+000	-1.17651339E+002	
-5.30528784E+000	-1.17673064E+002	
-5.28457454E+000	-1.17652822E+002	
-5.26386123E+000	-1.17634661E+002	
-5.24314792E+000	-1.17577068E+002	
-5.22243462E+000	-1.17557677E+002	
-5.20172131E+000	-1.17561525E+002	
-5.18100801E+000	-1.17537998E+002	
-5.16029470E+000	-1.17533774E+002	
-5.13958140E+000	-1.17491720E+002	
-5.11886809E+000	-1.17467449E+002	
-5.09815479E+000	-1.17477178E+002	
-5.07744148E+000	-1.17444325E+002	
-5.05672818E+000	-1.17515232E+002	
-5.03601487E+000	-1.17539535E+002	
-5.01530157E+000	-1.17579088E+002	
-4.99458826E+000	-1.17583188E+002	
-4.97387496E+000	-1.17536057E+002	
-4.95316165E+000	-1.17535141E+002	
-4.93244834E+000	-1.17490524E+002	
-4.91173504E+000	-1.17472434E+002	
-4.89102173E+000	-1.17457602E+002	
-4.87030843E+000	-1.17484764E+002	
-4.84959512E+000	-1.17474553E+002	
-4.82888182E+000	-1.17435498E+002	
-4.80816851E+000	-1.17424061E+002	
-4.78745521E+000	-1.17440157E+002	
-4.76674190E+000	-1.17470339E+002	
-4.74602860E+000	-1.17486582E+002	
-4.72531529E+000	-1.17536080E+002	
-4.70460199E+000	-1.17521397E+002	
-4.68388868E+000	-1.17551036E+002	
-4.66317538E+000	-1.17529880E+002	
-4.64246207E+000	-1.17573739E+002	
-4.62174877E+000	-1.17623669E+002	
-4.60103546E+000	-1.17657569E+002	
-4.58032215E+000	-1.17677843E+002	
-4.55960885E+000	-1.17635587E+002	
-4.53889554E+000	-1.17669700E+002	
-4.51818224E+000	-1.17598982E+002	
-4.49746893E+000	-1.17554417E+002	
-4.47675563E+000	-1.17600569E+002	
-4.45604232E+000	-1.17584942E+002	
-4.43532902E+000	-1.17586259E+002	
-4.41461571E+000	-1.17588891E+002	
-4.39390241E+000	-1.17604147E+002	
-4.37318910E+000	-1.17612641E+002	
-4.35247580E+000	-1.17595881E+002	
-4.33176249E+000	-1.17589228E+002	
-4.31104919E+000	-1.17582955E+002	
-4.29033588E+000	-1.17572734E+002	
-4.26962257E+000	-1.17565362E+002	
-4.24890927E+000	-1.17610904E+002	
-4.22819596E+000	-1.17612656E+002	
-4.20748266E+000	-1.17654226E+002	
-4.18676935E+000	-1.17622806E+002	
-4.16605605E+000	-1.17635986E+002	
-4.14534274E+000	-1.17642550E+002	
-4.12462944E+000	-1.17594505E+002	
-4.10391613E+000	-1.17593184E+002	
-4.08320283E+000	-1.17588130E+002	
-4.06248952E+000	-1.17587143E+002	
-4.04177622E+000	-1.17542980E+002	
-4.02106291E+000	-1.17576472E+002	
-4.00034961E+000	-1.17576790E+002	
-3.97963630E+000	-1.17531522E+002	
-3.95892299E+000	-1.17536616E+002	
-3.93820969E+000	-1.17503600E+002	
-3.91749638E+000	-1.17513636E+002	
-3.89678308E+000	-1.17483813E+002	
-3.87606977E+000	-1.17422847E+002	
-3.85535647E+000	-1.17421563E+002	
-3.83464316E+000	-1.17412627E+002	
-3.81392986E+000	-1.17413314E+002	
-3.79321655E+000	-1.17444932E+002	
-3.77250325E+000	-1.17399468E+002	
-3.75178994E+000	-1.17415617E+002	
-3.73107664E+000	-1.17427579E+002	
-3.71036333E+000	-1.17366769E+002	
-3.68965003E+000	-1.17375449E+002	
-3.66893672E+000	-1.17427232E+002	
-3.64822342E+000	-1.17394745E+002	
-3.62751011E+000	-1.17413562E+002	
-3.60679680E+000	-1.17410617E+002	
-3.58608350E+000	-1.17409257E+002	
-3.56537019E+000	-1.17433992E+002	
-3.54465689E+000	-1.17441914E+002	
-3.52394358E+000	-1.17466057E+002	
-3.50323028E+000	-1.17509662E+002	
-3.48251697E+000	-1.17544585E+002	
-3.46180367E+000	-1.17579583E+002	
-3.44109036E+000	-1.17604803E+002	
-3.42037706E+000	-1.17635680E+002	
-3.39966375E+000	-1.17680159E+002	
-3.37895045E+000	-1.17734013E+002	
-3.35823714E+000	-1.17730993E+002	
-3.33752384E+000	-1.17735312E+002	
-3.31681053E+000	-1.17735626E+002	
-3.29609722E+000	-1.17711299E+002	
-3.27538392E+000	-1.17726501E+002	
-3.25467061E+000	-1.17737650E+002	
-3.23395731E+000	-1.17730575E+002	
-3.21324400E+000	-1.17758374E+002	
-3.19253070E+000	-1.17764091E+002	
-3.17181739E+000	-1.17719447E+002	
-3.15110409E+000	-1.17701047E+002	
-3.13039078E+000	-1.17701054E+002	
-3.10967748E+000	-1.17743387E+002	
-3.08896417E+000	-1.17722424E+002	
-3.06825087E+000	-1.17707597E+002	
-3.04753756E+000	-1.17734807E+002	
-3.02682426E+000	-1.17707881E+002	
-3.00611095E+000	-1.17638243E+002	
-2.98539764E+000	-1.17687289E+002	
-2.96468434E+000	-1.17653195E+002	
-2.94397103E+000	-1.17632625E+002	
-2.92325773E+000	-1.17591372E+002	
-2.90254442E+000	-1.17574496E+002	
-2.88183112E+000	-1.17585827E+002	
-2.86111781E+000	-1.17624305E+002	
-2.84040451E+000	-1.17663813E+002	
-2.81969120E+000	-1.17697222E+002	
-2.79897790E+000	-1.17765097E+002	
-2.77826459E+000	-1.17743137E+002	
-2.75755129E+000	-1.17709965E+002	
-2.73683798E+000	-1.17721215E+002	
-2.71612468E+000	-1.17669656E+002	
-2.69541137E+000	-1.17665022E+002	
-2.67469807E+000	-1.17742479E+002	
-2.65398476E+000	-1.17777050E+002	
-2.63327145E+000	-1.17777017E+002	
-2.61255815E+000	-1.17724105E+002	
-2.59184484E+000	-1.17733799E+002	
-2.57113154E+000	-1.17730758E+002	
-2.55041823E+000	-1.17727004E+002	
-2.52970493E+000	-1.17786195E+002	
-2.50899162E+000	-1.17856060E+002	
-2.48827832E+000	-1.17841385E+002	
-2.46756501E+000	-1.17849973E+002	
-2.44685171E+000	-1.17852003E+002	
-2.42613840E+000	-1.17877664E+002	
-2.40542510E+000	-1.17898016E+002	
-2.38471179E+000	-1.17890830E+002	
-2.36399849E+000	-1.17879516E+002	
-2.34328518E+000	-1.17832837E+002	
-2.32257187E+000	-1.17791865E+002	
-2.30185857E+000	-1.17725362E+002	
-2.28114526E+000	-1.17728121E+002	
-2.26043196E+000	-1.17798348E+002	
-2.23971865E+000	-1.17780566E+002	
-2.21900535E+000	-1.17830952E+002	
-2.19829204E+000	-1.17852852E+002	
-2.17757874E+000	-1.17803537E+002	
-2.15686543E+000	-1.17775372E+002	
-2.13615213E+000	-1.17810184E+002	
-2.11543882E+000	-1.17816743E+002	
-2.09472552E+000	-1.17833654E+002	
-2.07401221E+000	-1.17806999E+002	
-2.05329891E+000	-1.17756021E+002	
-2.03258560E+000	-1.17763699E+002	
-2.01187229E+000	-1.17763226E+002	
-1.99115899E+000	-1.17764886E+002	
-1.97044568E+000	-1.17707542E+002	
-1.94973238E+000	-1.17714856E+002	
-1.92901907E+000	-1.17694424E+002	
-1.90830577E+000	-1.17651545E+002	
-1.88759246E+000	-1.17639069E+002	
-1.86687916E+000	-1.17648558E+002	
-1.84616585E+000	-1.17616567E+002	
-1.82545255E+000	-1.17693188E+002	
-1.80473924E+000	-1.17694689E+002	
-1.78402594E+000	-1.17726581E+002	
-1.76331263E+000	-1.17735439E+002	
-1.74259933E+000	-1.17699140E+002	
-1.72188602E+000	-1.17695123E+002	
-1.70117272E+000	-1.17754444E+002	
-1.68045941E+000	-1.17775050E+002	
-1.65974610E+000	-1.17731147E+002	
-1.63903280E+000	-1.17697958E+002	
-1.61831949E+000	-1.17747681E+002	
-1.59760619E+000	-1.17753363E+002	
-1.57689288E+000	-1.17772108E+002	
-1.55617958E+000	-1.17838997E+002	
-1.53546627E+000	-1.17831709E+002	
-1.51475297E+000	-1.17828968E+002	
-1.49403966E+000	-1.17790078E+002	
-1.47332636E+000	-1.17819292E+002	
-1.45261305E+000	-1.17783025E+002	
-1.43189975E+000	-1.17782840E+002	
-1.41118644E+000	-1.17763074E+002	
-1.39047314E+000	-1.17779696E+002	
-1.36975983E+000	-1.17757520E+002	
-1.34904652E+000	-1.17759864E+002	
-1.32833322E+000	-1.17711735E+002	
-1.30761991E+000	-1.17673762E+002	
-1.28690661E+000	-1.17674203E+002	
-1.26619330E+000	-1.17660233E+002	
-1.24548000E+000	-1.17693550E+002	
-1.22476669E+000	-1.17730370E+002	
-1.20405339E+000	-1.17636499E+002	
-1.18334008E+000	-1.17633343E+002	
-1.16262678E+000	-1.17699195E+002	
-1.14191347E+000	-1.17722843E+002	
-1.12120017E+000	-1.17709922E+002	
-1.10048686E+000	-1.17683849E+002	
-1.07977356E+000	-1.17681104E+002	
-1.05906025E+000	-1.17701246E+002	
-1.03834694E+000	-1.17678045E+002	
-1.01763364E+000	-1.17626379E+002	
-9.96920334E-001	-1.17584431E+002	
-9.76207029E-001	-1.17569237E+002	
-9.55493724E-001	-1.17588631E+002	
-9.34780418E-001	-1.17611893E+002	
-9.14067113E-001	-1.17681083E+002	
-8.93353808E-001	-1.17678248E+002	
-8.72640502E-001	-1.17659849E+002	
-8.51927197E-001	-1.17700736E+002	
-8.31213892E-001	-1.17731736E+002	
-8.10500586E-001	-1.17775735E+002	
-7.89787281E-001	-1.17787725E+002	
-7.69073976E-001	-1.17798115E+002	
-7.48360671E-001	-1.17785206E+002	
-7.27647365E-001	-1.17779167E+002	
-7.06934060E-001	-1.17820228E+002	
-6.86220755E-001	-1.17845464E+002	
-6.65507449E-001	-1.17873748E+002	
-6.44794144E-001	-1.17872684E+002	
-6.24080839E-001	-1.17842260E+002	
-6.03367533E-001	-1.17832800E+002	
-5.82654228E-001	-1.17814318E+002	
-5.61940923E-001	-1.17762218E+002	
-5.41227617E-001	-1.17726238E+002	
-5.20514312E-001	-1.17737009E+002	
-4.99801007E-001	-1.17809053E+002	
-4.79087701E-001	-1.17873798E+002	
-4.58374396E-001	-1.17889279E+002	
-4.37661091E-001	-1.17849234E+002	
-4.16947785E-001	-1.17798582E+002	
-3.96234480E-001	-1.17787934E+002	
-3.75521175E-001	-1.17805818E+002	
-3.54807869E-001	-1.17807425E+002	
-3.34094564E-001	-1.17809221E+002	
-3.13381259E-001	-1.17836794E+002	
-2.92667954E-001	-1.17839189E+002	
-2.71954648E-001	-1.17805163E+002	
-2.51241343E-001	-1.13505031E+002	
-2.30528038E-001	-1.13240104E+002	
-2.09814732E-001	-1.13230821E+002	
-1.89101427E-001	-1.13196822E+002	
-1.68388122E-001	-1.13156545E+002	
-1.47674816E-001	-1.13141359E+002	
-1.26961511E-001	-1.13137272E+002	
-1.06248206E-001	-1.13097999E+002	
-8.55349003E-002	-1.13085951E+002	
-6.48215950E-002	-1.13080013E+002	
-4.41082897E-002	-1.13088774E+002	
-2.33949844E-002	-1.13081689E+002	
-2.68167905E-003	-1.13078872E+002	
1.80316263E-002	-1.13045427E+002	
3.87449316E-002	-1.13028032E+002	
5.94582369E-002	-1.13030677E+002	
8.01715422E-002	-1.13042957E+002	
1.00884848E-001	-1.13038073E+002	
1.21598153E-001	-1.13006483E+002	
1.42311458E-001	-1.12993268E+002	
1.63024763E-001	-1.12988856E+002	
1.83738069E-001	-1.12969813E+002	
2.04451374E-001	-1.12943168E+002	
2.25164679E-001	-1.12947483E+002	
2.45877985E-001	-1.15653716E+002	
2.66591290E-001	-1.17014708E+002	
2.87304595E-001	-1.17015382E+002	
3.08017901E-001	-1.17071455E+002	
3.28731206E-001	-1.17121506E+002	
3.49444511E-001	-1.17135116E+002	
3.70157817E-001	-1.17171770E+002	
3.90871122E-001	-1.17251208E+002	
4.11584427E-001	-1.17231423E+002	
4.32297733E-001	-1.17216459E+002	
4.53011038E-001	-1.17205167E+002	
4.73724343E-001	-1.17219634E+002	
4.94437649E-001	-1.17205337E+002	
5.15150954E-001	-1.17246057E+002	
5.35864259E-001	-1.17255919E+002	
5.56577565E-001	-1.17298374E+002	
5.77290870E-001	-1.17245892E+002	
5.98004175E-001	-1.17222299E+002	
6.18717481E-001	-1.17268579E+002	
6.39430786E-001	-1.17271222E+002	
6.60144091E-001	-1.17251593E+002	
6.80857396E-001	-1.17283024E+002	
7.01570702E-001	-1.17307569E+002	
7.22284007E-001	-1.17316023E+002	
7.42997312E-001	-1.17289788E+002	
7.63710618E-001	-1.17290830E+002	
7.84423923E-001	-1.17263730E+002	
8.05137228E-001	-1.17240238E+002	
8.25850534E-001	-1.17218393E+002	
8.46563839E-001	-1.17191889E+002	
8.67277144E-001	-1.17170309E+002	
8.87990450E-001	-1.17153007E+002	
9.08703755E-001	-1.17246705E+002	
9.29417060E-001	-1.17294243E+002	
9.50130366E-001	-1.17320136E+002	
9.70843671E-001	-1.17274007E+002	
9.91556976E-001	-1.17262332E+002	
1.01227028E+000	-1.17284415E+002	
1.03298359E+000	-1.17278716E+002	
1.05369689E+000	-1.17244535E+002	
1.07441020E+000	-1.17259748E+002	
1.09512350E+000	-1.17273587E+002	
1.11583681E+000	-1.17338452E+002	
1.13655011E+000	-1.17352570E+002	
1.15726342E+000	-1.17354261E+002	
1.17797672E+000	-1.17323646E+002	
1.19869003E+000	-1.17370188E+002	
1.21940333E+000	-1.17352071E+002	
1.24011664E+000	-1.17368386E+002	
1.26082995E+000	-1.17363399E+002	
1.28154325E+000	-1.17373113E+002	
1.30225656E+000	-1.17387438E+002	
1.32296986E+000	-1.17386459E+002	
1.34368317E+000	-1.17412099E+002	
1.36439647E+000	-1.17472928E+002	
1.38510978E+000	-1.17483837E+002	
1.40582308E+000	-1.17414318E+002	
1.42653639E+000	-1.17417251E+002	
1.44724969E+000	-1.17408650E+002	
1.46796300E+000	-1.17423356E+002	
1.48867630E+000	-1.17453765E+002	
1.50938961E+000	-1.17435249E+002	
1.53010291E+000	-1.17438363E+002	
1.55081622E+000	-1.17427875E+002	
1.57152953E+000	-1.17434307E+002	
