Acquired on 4/26/2021 at 16:04:49
Calibrated on 4/26/2021 at 14:40:00
Device Descriptor:  [none]
Scan Range (nm):  1539.624  --  1560.517
Measurement Type:  Reflection
Group Index:  1.500
Gain:  24 dB
Domain:  Time
Spatial Resolution (mm):  50.000000
Frequency domain window was applied to measurement data.
Number of Data Points (in this file):  16384
NOTE: Data stored in this file is decimated by a factor of 64.

Time (ns)	Amplitude (dB)	
-1.00072081E+001	-1.20316395E+002	
-9.98649484E+000	-1.19982965E+002	
-9.96578154E+000	-1.19653416E+002	
-9.94506823E+000	-1.19394621E+002	
-9.92435493E+000	-1.19161360E+002	
-9.90364162E+000	-1.18924222E+002	
-9.88292832E+000	-1.18708539E+002	
-9.86221501E+000	-1.18493380E+002	
-9.84150171E+000	-1.18300280E+002	
-9.82078840E+000	-1.18119274E+002	
-9.80007509E+000	-1.17915587E+002	
-9.77936179E+000	-1.17726909E+002	
-9.75864848E+000	-1.17672886E+002	
-9.73793518E+000	-1.17701531E+002	
-9.71722187E+000	-1.17695435E+002	
-9.69650857E+000	-1.17698677E+002	
-9.67579526E+000	-1.17762994E+002	
-9.65508196E+000	-1.17742758E+002	
-9.63436865E+000	-1.17686714E+002	
-9.61365535E+000	-1.17683555E+002	
-9.59294204E+000	-1.17690598E+002	
-9.57222874E+000	-1.17723253E+002	
-9.55151543E+000	-1.17747202E+002	
-9.53080213E+000	-1.17731572E+002	
-9.51008882E+000	-1.17762881E+002	
-9.48937552E+000	-1.17778378E+002	
-9.46866221E+000	-1.17763173E+002	
-9.44794890E+000	-1.17732944E+002	
-9.42723560E+000	-1.17679788E+002	
-9.40652229E+000	-1.17668434E+002	
-9.38580899E+000	-1.17633033E+002	
-9.36509568E+000	-1.17626443E+002	
-9.34438238E+000	-1.17581136E+002	
-9.32366907E+000	-1.17554812E+002	
-9.30295577E+000	-1.17557618E+002	
-9.28224246E+000	-1.17561582E+002	
-9.26152916E+000	-1.17516227E+002	
-9.24081585E+000	-1.17454199E+002	
-9.22010255E+000	-1.17433358E+002	
-9.19938924E+000	-1.17465754E+002	
-9.17867594E+000	-1.17439123E+002	
-9.15796263E+000	-1.17431599E+002	
-9.13724932E+000	-1.17492559E+002	
-9.11653602E+000	-1.17504002E+002	
-9.09582271E+000	-1.17483377E+002	
-9.07510941E+000	-1.17478920E+002	
-9.05439610E+000	-1.17465342E+002	
-9.03368280E+000	-1.17346688E+002	
-9.01296949E+000	-1.17332631E+002	
-8.99225619E+000	-1.17339038E+002	
-8.97154288E+000	-1.17386023E+002	
-8.95082958E+000	-1.17397992E+002	
-8.93011627E+000	-1.17427357E+002	
-8.90940297E+000	-1.17455088E+002	
-8.88868966E+000	-1.17476411E+002	
-8.86797636E+000	-1.17461817E+002	
-8.84726305E+000	-1.17468386E+002	
-8.82654974E+000	-1.17450281E+002	
-8.80583644E+000	-1.17469973E+002	
-8.78512313E+000	-1.17468372E+002	
-8.76440983E+000	-1.17471011E+002	
-8.74369652E+000	-1.17531229E+002	
-8.72298322E+000	-1.17550129E+002	
-8.70226991E+000	-1.17489292E+002	
-8.68155661E+000	-1.17473104E+002	
-8.66084330E+000	-1.17501004E+002	
-8.64013000E+000	-1.17455330E+002	
-8.61941669E+000	-1.17405492E+002	
-8.59870339E+000	-1.17426895E+002	
-8.57799008E+000	-1.17428993E+002	
-8.55727678E+000	-1.17402149E+002	
-8.53656347E+000	-1.17516904E+002	
-8.51585017E+000	-1.17526884E+002	
-8.49513686E+000	-1.17527690E+002	
-8.47442355E+000	-1.17516375E+002	
-8.45371025E+000	-1.17539354E+002	
-8.43299694E+000	-1.17571167E+002	
-8.41228364E+000	-1.17533862E+002	
-8.39157033E+000	-1.17523638E+002	
-8.37085703E+000	-1.17569880E+002	
-8.35014372E+000	-1.17586247E+002	
-8.32943042E+000	-1.17613591E+002	
-8.30871711E+000	-1.17562722E+002	
-8.28800381E+000	-1.17592434E+002	
-8.26729050E+000	-1.17590792E+002	
-8.24657720E+000	-1.17584689E+002	
-8.22586389E+000	-1.17563846E+002	
-8.20515059E+000	-1.17613727E+002	
-8.18443728E+000	-1.17605548E+002	
-8.16372397E+000	-1.17587761E+002	
-8.14301067E+000	-1.17560615E+002	
-8.12229736E+000	-1.17575057E+002	
-8.10158406E+000	-1.17581884E+002	
-8.08087075E+000	-1.17579628E+002	
-8.06015745E+000	-1.17556811E+002	
-8.03944414E+000	-1.17503214E+002	
-8.01873084E+000	-1.17521466E+002	
-7.99801753E+000	-1.17522210E+002	
-7.97730423E+000	-1.17516790E+002	
-7.95659092E+000	-1.17489260E+002	
-7.93587762E+000	-1.17506905E+002	
-7.91516431E+000	-1.17543633E+002	
-7.89445101E+000	-1.17533300E+002	
-7.87373770E+000	-1.17510244E+002	
-7.85302439E+000	-1.17508756E+002	
-7.83231109E+000	-1.17485392E+002	
-7.81159778E+000	-1.17532118E+002	
-7.79088448E+000	-1.17555778E+002	
-7.77017117E+000	-1.17573187E+002	
-7.74945787E+000	-1.17584846E+002	
-7.72874456E+000	-1.17608688E+002	
-7.70803126E+000	-1.17574436E+002	
-7.68731795E+000	-1.17609691E+002	
-7.66660465E+000	-1.17604494E+002	
-7.64589134E+000	-1.17605650E+002	
-7.62517804E+000	-1.17606179E+002	
-7.60446473E+000	-1.17528540E+002	
-7.58375143E+000	-1.17547194E+002	
-7.56303812E+000	-1.17586839E+002	
-7.54232482E+000	-1.17653750E+002	
-7.52161151E+000	-1.17644748E+002	
-7.50089820E+000	-1.17654573E+002	
-7.48018490E+000	-1.17636168E+002	
-7.45947159E+000	-1.17678833E+002	
-7.43875829E+000	-1.17608896E+002	
-7.41804498E+000	-1.17535327E+002	
-7.39733168E+000	-1.17575987E+002	
-7.37661837E+000	-1.17577729E+002	
-7.35590507E+000	-1.17584342E+002	
-7.33519176E+000	-1.17611413E+002	
-7.31447846E+000	-1.17637728E+002	
-7.29376515E+000	-1.17620453E+002	
-7.27305185E+000	-1.17598468E+002	
-7.25233854E+000	-1.17628084E+002	
-7.23162524E+000	-1.17625117E+002	
-7.21091193E+000	-1.17612983E+002	
-7.19019862E+000	-1.17601930E+002	
-7.16948532E+000	-1.17646031E+002	
-7.14877201E+000	-1.17714624E+002	
-7.12805871E+000	-1.17758114E+002	
-7.10734540E+000	-1.17832793E+002	
-7.08663210E+000	-1.17866533E+002	
-7.06591879E+000	-1.17836053E+002	
-7.04520549E+000	-1.17826290E+002	
-7.02449218E+000	-1.17807528E+002	
-7.00377888E+000	-1.17777299E+002	
-6.98306557E+000	-1.17807651E+002	
-6.96235227E+000	-1.17774702E+002	
-6.94163896E+000	-1.17810379E+002	
-6.92092566E+000	-1.17867574E+002	
-6.90021235E+000	-1.17873554E+002	
-6.87949904E+000	-1.17853350E+002	
-6.85878574E+000	-1.17838970E+002	
-6.83807243E+000	-1.17863359E+002	
-6.81735913E+000	-1.17872513E+002	
-6.79664582E+000	-1.17827738E+002	
-6.77593252E+000	-1.17850626E+002	
-6.75521921E+000	-1.17797570E+002	
-6.73450591E+000	-1.17793761E+002	
-6.71379260E+000	-1.17778966E+002	
-6.69307930E+000	-1.17777092E+002	
-6.67236599E+000	-1.17741183E+002	
-6.65165269E+000	-1.17724149E+002	
-6.63093938E+000	-1.17733615E+002	
-6.61022608E+000	-1.17752479E+002	
-6.58951277E+000	-1.17748744E+002	
-6.56879947E+000	-1.17742052E+002	
-6.54808616E+000	-1.17712371E+002	
-6.52737285E+000	-1.17696619E+002	
-6.50665955E+000	-1.17729003E+002	
-6.48594624E+000	-1.17767237E+002	
-6.46523294E+000	-1.17803426E+002	
-6.44451963E+000	-1.17729735E+002	
-6.42380633E+000	-1.17687442E+002	
-6.40309302E+000	-1.17675310E+002	
-6.38237972E+000	-1.17648951E+002	
-6.36166641E+000	-1.17645690E+002	
-6.34095311E+000	-1.17646840E+002	
-6.32023980E+000	-1.17641363E+002	
-6.29952650E+000	-1.17656022E+002	
-6.27881319E+000	-1.17630626E+002	
-6.25809989E+000	-1.17651660E+002	
-6.23738658E+000	-1.17646141E+002	
-6.21667327E+000	-1.17628748E+002	
-6.19595997E+000	-1.17636074E+002	
-6.17524666E+000	-1.17625357E+002	
-6.15453336E+000	-1.17630891E+002	
-6.13382005E+000	-1.17618070E+002	
-6.11310675E+000	-1.17618651E+002	
-6.09239344E+000	-1.17610185E+002	
-6.07168014E+000	-1.17559411E+002	
-6.05096683E+000	-1.17629424E+002	
-6.03025353E+000	-1.17638496E+002	
-6.00954022E+000	-1.17608751E+002	
-5.98882692E+000	-1.17553997E+002	
-5.96811361E+000	-1.17557200E+002	
-5.94740031E+000	-1.17602404E+002	
-5.92668700E+000	-1.17648395E+002	
-5.90597369E+000	-1.17654348E+002	
-5.88526039E+000	-1.17707300E+002	
-5.86454708E+000	-1.17724705E+002	
-5.84383378E+000	-1.17689730E+002	
-5.82312047E+000	-1.17698447E+002	
-5.80240717E+000	-1.17664053E+002	
-5.78169386E+000	-1.17676668E+002	
-5.76098056E+000	-1.17675167E+002	
-5.74026725E+000	-1.17669644E+002	
-5.71955395E+000	-1.17703722E+002	
-5.69884064E+000	-1.17708664E+002	
-5.67812734E+000	-1.17724522E+002	
-5.65741403E+000	-1.17711020E+002	
-5.63670073E+000	-1.17714891E+002	
-5.61598742E+000	-1.17689917E+002	
-5.59527412E+000	-1.17650375E+002	
-5.57456081E+000	-1.17713383E+002	
-5.55384750E+000	-1.17636502E+002	
-5.53313420E+000	-1.17561841E+002	
-5.51242089E+000	-1.17572779E+002	
-5.49170759E+000	-1.17582534E+002	
-5.47099428E+000	-1.17556410E+002	
-5.45028098E+000	-1.17603077E+002	
-5.42956767E+000	-1.17641636E+002	
-5.40885437E+000	-1.17624829E+002	
-5.38814106E+000	-1.17614351E+002	
-5.36742776E+000	-1.17594464E+002	
-5.34671445E+000	-1.17632310E+002	
-5.32600115E+000	-1.17635528E+002	
-5.30528784E+000	-1.17650940E+002	
-5.28457454E+000	-1.17628994E+002	
-5.26386123E+000	-1.17607920E+002	
-5.24314792E+000	-1.17552502E+002	
-5.22243462E+000	-1.17527747E+002	
-5.20172131E+000	-1.17525717E+002	
-5.18100801E+000	-1.17495621E+002	
-5.16029470E+000	-1.17498595E+002	
-5.13958140E+000	-1.17455190E+002	
-5.11886809E+000	-1.17432164E+002	
-5.09815479E+000	-1.17442180E+002	
-5.07744148E+000	-1.17410692E+002	
-5.05672818E+000	-1.17487983E+002	
-5.03601487E+000	-1.17516984E+002	
-5.01530157E+000	-1.17561908E+002	
-4.99458826E+000	-1.17567020E+002	
-4.97387496E+000	-1.17520653E+002	
-4.95316165E+000	-1.17517765E+002	
-4.93244834E+000	-1.17475696E+002	
-4.91173504E+000	-1.17467569E+002	
-4.89102173E+000	-1.17458346E+002	
-4.87030843E+000	-1.17486057E+002	
-4.84959512E+000	-1.17472528E+002	
-4.82888182E+000	-1.17435473E+002	
-4.80816851E+000	-1.17429687E+002	
-4.78745521E+000	-1.17442585E+002	
-4.76674190E+000	-1.17473266E+002	
-4.74602860E+000	-1.17490358E+002	
-4.72531529E+000	-1.17546236E+002	
-4.70460199E+000	-1.17537346E+002	
-4.68388868E+000	-1.17575250E+002	
-4.66317538E+000	-1.17559351E+002	
-4.64246207E+000	-1.17605184E+002	
-4.62174877E+000	-1.17653938E+002	
-4.60103546E+000	-1.17683472E+002	
-4.58032215E+000	-1.17708905E+002	
-4.55960885E+000	-1.17668398E+002	
-4.53889554E+000	-1.17704660E+002	
-4.51818224E+000	-1.17632248E+002	
-4.49746893E+000	-1.17587632E+002	
-4.47675563E+000	-1.17632901E+002	
-4.45604232E+000	-1.17620912E+002	
-4.43532902E+000	-1.17628794E+002	
-4.41461571E+000	-1.17624017E+002	
-4.39390241E+000	-1.17636327E+002	
-4.37318910E+000	-1.17646299E+002	
-4.35247580E+000	-1.17626305E+002	
-4.33176249E+000	-1.17617212E+002	
-4.31104919E+000	-1.17611652E+002	
-4.29033588E+000	-1.17595383E+002	
-4.26962257E+000	-1.17585244E+002	
-4.24890927E+000	-1.17629026E+002	
-4.22819596E+000	-1.17632200E+002	
-4.20748266E+000	-1.17671426E+002	
-4.18676935E+000	-1.17639381E+002	
-4.16605605E+000	-1.17643410E+002	
-4.14534274E+000	-1.17651821E+002	
-4.12462944E+000	-1.17606490E+002	
-4.10391613E+000	-1.17604278E+002	
-4.08320283E+000	-1.17591580E+002	
-4.06248952E+000	-1.17585858E+002	
-4.04177622E+000	-1.17538249E+002	
-4.02106291E+000	-1.17567239E+002	
-4.00034961E+000	-1.17568005E+002	
-3.97963630E+000	-1.17529409E+002	
-3.95892299E+000	-1.17533321E+002	
-3.93820969E+000	-1.17502179E+002	
-3.91749638E+000	-1.17515311E+002	
-3.89678308E+000	-1.17485716E+002	
-3.87606977E+000	-1.17423381E+002	
-3.85535647E+000	-1.17428823E+002	
-3.83464316E+000	-1.17417517E+002	
-3.81392986E+000	-1.17411586E+002	
-3.79321655E+000	-1.17448210E+002	
-3.77250325E+000	-1.17406665E+002	
-3.75178994E+000	-1.17425110E+002	
-3.73107664E+000	-1.17429668E+002	
-3.71036333E+000	-1.17368865E+002	
-3.68965003E+000	-1.17378995E+002	
-3.66893672E+000	-1.17429918E+002	
-3.64822342E+000	-1.17393589E+002	
-3.62751011E+000	-1.17412951E+002	
-3.60679680E+000	-1.17413243E+002	
-3.58608350E+000	-1.17420254E+002	
-3.56537019E+000	-1.17443783E+002	
-3.54465689E+000	-1.17448838E+002	
-3.52394358E+000	-1.17475849E+002	
-3.50323028E+000	-1.17521581E+002	
-3.48251697E+000	-1.17559461E+002	
-3.46180367E+000	-1.17599008E+002	
-3.44109036E+000	-1.17610803E+002	
-3.42037706E+000	-1.17640332E+002	
-3.39966375E+000	-1.17687111E+002	
-3.37895045E+000	-1.17738077E+002	
-3.35823714E+000	-1.17729997E+002	
-3.33752384E+000	-1.17736541E+002	
-3.31681053E+000	-1.17747054E+002	
-3.29609722E+000	-1.17730686E+002	
-3.27538392E+000	-1.17748781E+002	
-3.25467061E+000	-1.17759098E+002	
-3.23395731E+000	-1.17755368E+002	
-3.21324400E+000	-1.17784538E+002	
-3.19253070E+000	-1.17795582E+002	
-3.17181739E+000	-1.17767303E+002	
-3.15110409E+000	-1.17755235E+002	
-3.13039078E+000	-1.17750754E+002	
-3.10967748E+000	-1.17791254E+002	
-3.08896417E+000	-1.17765517E+002	
-3.06825087E+000	-1.17745518E+002	
-3.04753756E+000	-1.17780434E+002	
-3.02682426E+000	-1.17756977E+002	
-3.00611095E+000	-1.17682461E+002	
-2.98539764E+000	-1.17727760E+002	
-2.96468434E+000	-1.17689541E+002	
-2.94397103E+000	-1.17671890E+002	
-2.92325773E+000	-1.17630185E+002	
-2.90254442E+000	-1.17613304E+002	
-2.88183112E+000	-1.17625343E+002	
-2.86111781E+000	-1.17665984E+002	
-2.84040451E+000	-1.17705961E+002	
-2.81969120E+000	-1.17731748E+002	
-2.79897790E+000	-1.17790623E+002	
-2.77826459E+000	-1.17755244E+002	
-2.75755129E+000	-1.17725929E+002	
-2.73683798E+000	-1.17739537E+002	
-2.71612468E+000	-1.17692377E+002	
-2.69541137E+000	-1.17679147E+002	
-2.67469807E+000	-1.17740836E+002	
-2.65398476E+000	-1.17768068E+002	
-2.63327145E+000	-1.17767437E+002	
-2.61255815E+000	-1.17709846E+002	
-2.59184484E+000	-1.17716125E+002	
-2.57113154E+000	-1.17714673E+002	
-2.55041823E+000	-1.17703833E+002	
-2.52970493E+000	-1.17760863E+002	
-2.50899162E+000	-1.17832197E+002	
-2.48827832E+000	-1.17816160E+002	
-2.46756501E+000	-1.17824545E+002	
-2.44685171E+000	-1.17824197E+002	
-2.42613840E+000	-1.17856311E+002	
-2.40542510E+000	-1.17879430E+002	
-2.38471179E+000	-1.17869166E+002	
-2.36399849E+000	-1.17852394E+002	
-2.34328518E+000	-1.17802795E+002	
-2.32257187E+000	-1.17764184E+002	
-2.30185857E+000	-1.17701400E+002	
-2.28114526E+000	-1.17714762E+002	
-2.26043196E+000	-1.17785660E+002	
-2.23971865E+000	-1.17762405E+002	
-2.21900535E+000	-1.17804879E+002	
-2.19829204E+000	-1.17824702E+002	
-2.17757874E+000	-1.17781759E+002	
-2.15686543E+000	-1.17760186E+002	
-2.13615213E+000	-1.17802799E+002	
-2.11543882E+000	-1.17820761E+002	
-2.09472552E+000	-1.17845213E+002	
-2.07401221E+000	-1.17824051E+002	
-2.05329891E+000	-1.17783026E+002	
-2.03258560E+000	-1.17795207E+002	
-2.01187229E+000	-1.17786669E+002	
-1.99115899E+000	-1.17783002E+002	
-1.97044568E+000	-1.17719939E+002	
-1.94973238E+000	-1.17734264E+002	
-1.92901907E+000	-1.17713835E+002	
-1.90830577E+000	-1.17667722E+002	
-1.88759246E+000	-1.17657673E+002	
-1.86687916E+000	-1.17675284E+002	
-1.84616585E+000	-1.17646297E+002	
-1.82545255E+000	-1.17719254E+002	
-1.80473924E+000	-1.17718147E+002	
-1.78402594E+000	-1.17750474E+002	
-1.76331263E+000	-1.17753763E+002	
-1.74259933E+000	-1.17715184E+002	
-1.72188602E+000	-1.17710053E+002	
-1.70117272E+000	-1.17772888E+002	
-1.68045941E+000	-1.17793854E+002	
-1.65974610E+000	-1.17752170E+002	
-1.63903280E+000	-1.17719615E+002	
-1.61831949E+000	-1.17761090E+002	
-1.59760619E+000	-1.17761398E+002	
-1.57689288E+000	-1.17774061E+002	
-1.55617958E+000	-1.17835136E+002	
-1.53546627E+000	-1.17817451E+002	
-1.51475297E+000	-1.17817389E+002	
-1.49403966E+000	-1.17782338E+002	
-1.47332636E+000	-1.17817144E+002	
-1.45261305E+000	-1.17782061E+002	
-1.43189975E+000	-1.17778223E+002	
-1.41118644E+000	-1.17766659E+002	
-1.39047314E+000	-1.17786498E+002	
-1.36975983E+000	-1.17761061E+002	
-1.34904652E+000	-1.17764930E+002	
-1.32833322E+000	-1.17721208E+002	
-1.30761991E+000	-1.17689542E+002	
-1.28690661E+000	-1.17686869E+002	
-1.26619330E+000	-1.17669467E+002	
-1.24548000E+000	-1.17704940E+002	
-1.22476669E+000	-1.17745287E+002	
-1.20405339E+000	-1.17647126E+002	
-1.18334008E+000	-1.17644303E+002	
-1.16262678E+000	-1.17710513E+002	
-1.14191347E+000	-1.17724311E+002	
-1.12120017E+000	-1.17713883E+002	
-1.10048686E+000	-1.17692298E+002	
-1.07977356E+000	-1.17694693E+002	
-1.05906025E+000	-1.17714748E+002	
-1.03834694E+000	-1.17691529E+002	
-1.01763364E+000	-1.17639826E+002	
-9.96920334E-001	-1.17598771E+002	
-9.76207029E-001	-1.17578138E+002	
-9.55493724E-001	-1.17595103E+002	
-9.34780418E-001	-1.17620724E+002	
-9.14067113E-001	-1.17678610E+002	
-8.93353808E-001	-1.17669706E+002	
-8.72640502E-001	-1.17649879E+002	
-8.51927197E-001	-1.17688130E+002	
-8.31213892E-001	-1.17719931E+002	
-8.10500586E-001	-1.17766757E+002	
-7.89787281E-001	-1.17781198E+002	
-7.69073976E-001	-1.17799630E+002	
-7.48360671E-001	-1.17782066E+002	
-7.27647365E-001	-1.17769233E+002	
-7.06934060E-001	-1.17808808E+002	
-6.86220755E-001	-1.17830404E+002	
-6.65507449E-001	-1.17860028E+002	
-6.44794144E-001	-1.17865610E+002	
-6.24080839E-001	-1.17835142E+002	
-6.03367533E-001	-1.17820976E+002	
-5.82654228E-001	-1.17796864E+002	
-5.61940923E-001	-1.17740062E+002	
-5.41227617E-001	-1.17707767E+002	
-5.20514312E-001	-1.17725839E+002	
-4.99801007E-001	-1.17796649E+002	
-4.79087701E-001	-1.17862591E+002	
-4.58374396E-001	-1.17874415E+002	
-4.37661091E-001	-1.17827130E+002	
-4.16947785E-001	-1.17774005E+002	
-3.96234480E-001	-1.17760184E+002	
-3.75521175E-001	-1.17774478E+002	
-3.54807869E-001	-1.17777072E+002	
-3.34094564E-001	-1.17777801E+002	
-3.13381259E-001	-1.17803841E+002	
-2.92667954E-001	-1.17802840E+002	
-2.71954648E-001	-1.17758417E+002	
-2.51241343E-001	-1.13504248E+002	
-2.30528038E-001	-1.13242821E+002	
-2.09814732E-001	-1.13235765E+002	
-1.89101427E-001	-1.13204581E+002	
-1.68388122E-001	-1.13161753E+002	
-1.47674816E-001	-1.13144557E+002	
-1.26961511E-001	-1.13141681E+002	
-1.06248206E-001	-1.13105970E+002	
-8.55349003E-002	-1.13094599E+002	
-6.48215950E-002	-1.13090667E+002	
-4.41082897E-002	-1.13099682E+002	
-2.33949844E-002	-1.13089623E+002	
-2.68167905E-003	-1.13085723E+002	
1.80316263E-002	-1.13053845E+002	
3.87449316E-002	-1.13037853E+002	
5.94582369E-002	-1.13044149E+002	
8.01715422E-002	-1.13056744E+002	
1.00884848E-001	-1.13052979E+002	
1.21598153E-001	-1.13021798E+002	
1.42311458E-001	-1.13007022E+002	
1.63024763E-001	-1.13001835E+002	
1.83738069E-001	-1.12981502E+002	
2.04451374E-001	-1.12956363E+002	
2.25164679E-001	-1.12963902E+002	
2.45877985E-001	-1.15666722E+002	
2.66591290E-001	-1.17019097E+002	
2.87304595E-001	-1.17020114E+002	
3.08017901E-001	-1.17072485E+002	
3.28731206E-001	-1.17126292E+002	
3.49444511E-001	-1.17139817E+002	
3.70157817E-001	-1.17171596E+002	
3.90871122E-001	-1.17244581E+002	
4.11584427E-001	-1.17222776E+002	
4.32297733E-001	-1.17205558E+002	
4.53011038E-001	-1.17196476E+002	
4.73724343E-001	-1.17209237E+002	
4.94437649E-001	-1.17197187E+002	
5.15150954E-001	-1.17236280E+002	
5.35864259E-001	-1.17247102E+002	
5.56577565E-001	-1.17282678E+002	
5.77290870E-001	-1.17232424E+002	
5.98004175E-001	-1.17211932E+002	
6.18717481E-001	-1.17264001E+002	
6.39430786E-001	-1.17269171E+002	
6.60144091E-001	-1.17247337E+002	
6.80857396E-001	-1.17281254E+002	
7.01570702E-001	-1.17301907E+002	
7.22284007E-001	-1.17305888E+002	
7.42997312E-001	-1.17281213E+002	
7.63710618E-001	-1.17279847E+002	
7.84423923E-001	-1.17255756E+002	
8.05137228E-001	-1.17239663E+002	
8.25850534E-001	-1.17219227E+002	
8.46563839E-001	-1.17190159E+002	
8.67277144E-001	-1.17171142E+002	
8.87990450E-001	-1.17155925E+002	
9.08703755E-001	-1.17249704E+002	
9.29417060E-001	-1.17300981E+002	
9.50130366E-001	-1.17323356E+002	
9.70843671E-001	-1.17283984E+002	
9.91556976E-001	-1.17275254E+002	
1.01227028E+000	-1.17299558E+002	
1.03298359E+000	-1.17291520E+002	
1.05369689E+000	-1.17262858E+002	
1.07441020E+000	-1.17283589E+002	
1.09512350E+000	-1.17293932E+002	
1.11583681E+000	-1.17346936E+002	
1.13655011E+000	-1.17360169E+002	
1.15726342E+000	-1.17363878E+002	
1.17797672E+000	-1.17333221E+002	
1.19869003E+000	-1.17378750E+002	
1.21940333E+000	-1.17357276E+002	
1.24011664E+000	-1.17369366E+002	
1.26082995E+000	-1.17367968E+002	
1.28154325E+000	-1.17371634E+002	
1.30225656E+000	-1.17375263E+002	
1.32296986E+000	-1.17372493E+002	
1.34368317E+000	-1.17396944E+002	
1.36439647E+000	-1.17461151E+002	
1.38510978E+000	-1.17466105E+002	
1.40582308E+000	-1.17397104E+002	
1.42653639E+000	-1.17398262E+002	
1.44724969E+000	-1.17395258E+002	
1.46796300E+000	-1.17405099E+002	
1.48867630E+000	-1.17432501E+002	
1.50938961E+000	-1.17415641E+002	
1.53010291E+000	-1.17415645E+002	
1.55081622E+000	-1.17401336E+002	
1.57152953E+000	-1.17393327E+002	
