Time (ns)	Amplitude (dB)	
-1.00072081E+001	-1.20721412E+002	
-9.98649484E+000	-1.20385642E+002	
-9.96578154E+000	-1.20033520E+002	
-9.94506823E+000	-1.19766219E+002	
-9.92435493E+000	-1.19529618E+002	
-9.90364162E+000	-1.19286226E+002	
-9.88292832E+000	-1.19072868E+002	
-9.86221501E+000	-1.18862103E+002	
-9.84150171E+000	-1.18660123E+002	
-9.82078840E+000	-1.18480319E+002	
-9.80007509E+000	-1.18282587E+002	
-9.77936179E+000	-1.18083292E+002	
-9.75864848E+000	-1.18025218E+002	
-9.73793518E+000	-1.18033799E+002	
-9.71722187E+000	-1.18031147E+002	
-9.69650857E+000	-1.18033633E+002	
-9.67579526E+000	-1.18091884E+002	
-9.65508196E+000	-1.18070737E+002	
-9.63436865E+000	-1.18022324E+002	
-9.61365535E+000	-1.18028002E+002	
-9.59294204E+000	-1.18059822E+002	
-9.57222874E+000	-1.18089927E+002	
-9.55151543E+000	-1.18102773E+002	
-9.53080213E+000	-1.18091562E+002	
-9.51008882E+000	-1.18116155E+002	
-9.48937552E+000	-1.18141578E+002	
-9.46866221E+000	-1.18142461E+002	
-9.44794890E+000	-1.18119077E+002	
-9.42723560E+000	-1.18074795E+002	
-9.40652229E+000	-1.18077278E+002	
-9.38580899E+000	-1.18057820E+002	
-9.36509568E+000	-1.18048526E+002	
-9.34438238E+000	-1.18014533E+002	
-9.32366907E+000	-1.17985878E+002	
-9.30295577E+000	-1.17981380E+002	
-9.28224246E+000	-1.18000385E+002	
-9.26152916E+000	-1.17952798E+002	
-9.24081585E+000	-1.17896747E+002	
-9.22010255E+000	-1.17884164E+002	
-9.19938924E+000	-1.17920113E+002	
-9.17867594E+000	-1.17898443E+002	
-9.15796263E+000	-1.17901155E+002	
-9.13724932E+000	-1.17958029E+002	
-9.11653602E+000	-1.17961091E+002	
-9.09582271E+000	-1.17914996E+002	
-9.07510941E+000	-1.17920573E+002	
-9.05439610E+000	-1.17924284E+002	
-9.03368280E+000	-1.17801087E+002	
-9.01296949E+000	-1.17788988E+002	
-8.99225619E+000	-1.17793384E+002	
-8.97154288E+000	-1.17843287E+002	
-8.95082958E+000	-1.17853883E+002	
-8.93011627E+000	-1.17883814E+002	
-8.90940297E+000	-1.17905814E+002	
-8.88868966E+000	-1.17922324E+002	
-8.86797636E+000	-1.17911682E+002	
-8.84726305E+000	-1.17930491E+002	
-8.82654974E+000	-1.17920592E+002	
-8.80583644E+000	-1.17935846E+002	
-8.78512313E+000	-1.17935881E+002	
-8.76440983E+000	-1.17951870E+002	
-8.74369652E+000	-1.18012902E+002	
-8.72298322E+000	-1.18034653E+002	
-8.70226991E+000	-1.17968685E+002	
-8.68155661E+000	-1.17941185E+002	
-8.66084330E+000	-1.17976286E+002	
-8.64013000E+000	-1.17949787E+002	
-8.61941669E+000	-1.17911074E+002	
-8.59870339E+000	-1.17955063E+002	
-8.57799008E+000	-1.17957431E+002	
-8.55727678E+000	-1.17918027E+002	
-8.53656347E+000	-1.18035773E+002	
-8.51585017E+000	-1.18068191E+002	
-8.49513686E+000	-1.18079804E+002	
-8.47442355E+000	-1.18068043E+002	
-8.45371025E+000	-1.18103248E+002	
-8.43299694E+000	-1.18143060E+002	
-8.41228364E+000	-1.18108268E+002	
-8.39157033E+000	-1.18084374E+002	
-8.37085703E+000	-1.18134867E+002	
-8.35014372E+000	-1.18150674E+002	
-8.32943042E+000	-1.18164052E+002	
-8.30871711E+000	-1.18125713E+002	
-8.28800381E+000	-1.18161150E+002	
-8.26729050E+000	-1.18145431E+002	
-8.24657720E+000	-1.18136859E+002	
-8.22586389E+000	-1.18113604E+002	
-8.20515059E+000	-1.18160007E+002	
-8.18443728E+000	-1.18160380E+002	
-8.16372397E+000	-1.18146571E+002	
-8.14301067E+000	-1.18098486E+002	
-8.12229736E+000	-1.18113507E+002	
-8.10158406E+000	-1.18104848E+002	
-8.08087075E+000	-1.18096992E+002	
-8.06015745E+000	-1.18074288E+002	
-8.03944414E+000	-1.18020373E+002	
-8.01873084E+000	-1.18030105E+002	
-7.99801753E+000	-1.18006789E+002	
-7.97730423E+000	-1.17994612E+002	
-7.95659092E+000	-1.17956065E+002	
-7.93587762E+000	-1.17961821E+002	
-7.91516431E+000	-1.17995678E+002	
-7.89445101E+000	-1.17991332E+002	
-7.87373770E+000	-1.17970997E+002	
-7.85302439E+000	-1.17962251E+002	
-7.83231109E+000	-1.17949339E+002	
-7.81159778E+000	-1.17997885E+002	
-7.79088448E+000	-1.18020425E+002	
-7.77017117E+000	-1.18044874E+002	
-7.74945787E+000	-1.18065271E+002	
-7.72874456E+000	-1.18080089E+002	
-7.70803126E+000	-1.18041933E+002	
-7.68731795E+000	-1.18075216E+002	
-7.66660465E+000	-1.18066938E+002	
-7.64589134E+000	-1.18061570E+002	
-7.62517804E+000	-1.18047088E+002	
-7.60446473E+000	-1.17987360E+002	
-7.58375143E+000	-1.18003966E+002	
-7.56303812E+000	-1.18033325E+002	
-7.54232482E+000	-1.18097980E+002	
-7.52161151E+000	-1.18086795E+002	
-7.50089820E+000	-1.18107608E+002	
-7.48018490E+000	-1.18081715E+002	
-7.45947159E+000	-1.18131644E+002	
-7.43875829E+000	-1.18068904E+002	
-7.41804498E+000	-1.17983811E+002	
-7.39733168E+000	-1.18034755E+002	
-7.37661837E+000	-1.18049008E+002	
-7.35590507E+000	-1.18057128E+002	
-7.33519176E+000	-1.18073677E+002	
-7.31447846E+000	-1.18088406E+002	
-7.29376515E+000	-1.18063945E+002	
-7.27305185E+000	-1.18027712E+002	
-7.25233854E+000	-1.18056304E+002	
-7.23162524E+000	-1.18070081E+002	
-7.21091193E+000	-1.18059567E+002	
-7.19019862E+000	-1.18058433E+002	
-7.16948532E+000	-1.18107244E+002	
-7.14877201E+000	-1.18185705E+002	
-7.12805871E+000	-1.18242018E+002	
-7.10734540E+000	-1.18313506E+002	
-7.08663210E+000	-1.18347343E+002	
-7.06591879E+000	-1.18320584E+002	
-7.04520549E+000	-1.18305274E+002	
-7.02449218E+000	-1.18280103E+002	
-7.00377888E+000	-1.18239152E+002	
-6.98306557E+000	-1.18280540E+002	
-6.96235227E+000	-1.18238389E+002	
-6.94163896E+000	-1.18265161E+002	
-6.92092566E+000	-1.18336305E+002	
-6.90021235E+000	-1.18325986E+002	
-6.87949904E+000	-1.18295456E+002	
-6.85878574E+000	-1.18277985E+002	
-6.83807243E+000	-1.18302609E+002	
-6.81735913E+000	-1.18319029E+002	
-6.79664582E+000	-1.18276290E+002	
-6.77593252E+000	-1.18319958E+002	
-6.75521921E+000	-1.18277786E+002	
-6.73450591E+000	-1.18266318E+002	
-6.71379260E+000	-1.18238900E+002	
-6.69307930E+000	-1.18234994E+002	
-6.67236599E+000	-1.18183221E+002	
-6.65165269E+000	-1.18155688E+002	
-6.63093938E+000	-1.18174934E+002	
-6.61022608E+000	-1.18197027E+002	
-6.58951277E+000	-1.18192132E+002	
-6.56879947E+000	-1.18187119E+002	
-6.54808616E+000	-1.18175987E+002	
-6.52737285E+000	-1.18154535E+002	
-6.50665955E+000	-1.18180701E+002	
-6.48594624E+000	-1.18222931E+002	
-6.46523294E+000	-1.18259238E+002	
-6.44451963E+000	-1.18191266E+002	
-6.42380633E+000	-1.18147191E+002	
-6.40309302E+000	-1.18144988E+002	
-6.38237972E+000	-1.18106626E+002	
-6.36166641E+000	-1.18106192E+002	
-6.34095311E+000	-1.18114781E+002	
-6.32023980E+000	-1.18106783E+002	
-6.29952650E+000	-1.18118243E+002	
-6.27881319E+000	-1.18089867E+002	
-6.25809989E+000	-1.18104713E+002	
-6.23738658E+000	-1.18098216E+002	
-6.21667327E+000	-1.18081201E+002	
-6.19595997E+000	-1.18093121E+002	
-6.17524666E+000	-1.18092379E+002	
-6.15453336E+000	-1.18100279E+002	
-6.13382005E+000	-1.18079105E+002	
-6.11310675E+000	-1.18081893E+002	
-6.09239344E+000	-1.18071758E+002	
-6.07168014E+000	-1.18033279E+002	
-6.05096683E+000	-1.18100815E+002	
-6.03025353E+000	-1.18113739E+002	
-6.00954022E+000	-1.18104346E+002	
-5.98882692E+000	-1.18048803E+002	
-5.96811361E+000	-1.18055265E+002	
-5.94740031E+000	-1.18106204E+002	
-5.92668700E+000	-1.18149962E+002	
-5.90597369E+000	-1.18168126E+002	
-5.88526039E+000	-1.18226723E+002	
-5.86454708E+000	-1.18256233E+002	
-5.84383378E+000	-1.18213808E+002	
-5.82312047E+000	-1.18235658E+002	
-5.80240717E+000	-1.18204115E+002	
-5.78169386E+000	-1.18217977E+002	
-5.76098056E+000	-1.18212365E+002	
-5.74026725E+000	-1.18204519E+002	
-5.71955395E+000	-1.18249412E+002	
-5.69884064E+000	-1.18255888E+002	
-5.67812734E+000	-1.18289366E+002	
-5.65741403E+000	-1.18275914E+002	
-5.63670073E+000	-1.18286606E+002	
-5.61598742E+000	-1.18267295E+002	
-5.59527412E+000	-1.18240938E+002	
-5.57456081E+000	-1.18305359E+002	
-5.55384750E+000	-1.18222193E+002	
-5.53313420E+000	-1.18161816E+002	
-5.51242089E+000	-1.18174314E+002	
-5.49170759E+000	-1.18177022E+002	
-5.47099428E+000	-1.18156204E+002	
-5.45028098E+000	-1.18210032E+002	
-5.42956767E+000	-1.18246743E+002	
-5.40885437E+000	-1.18231663E+002	
-5.38814106E+000	-1.18209988E+002	
-5.36742776E+000	-1.18180071E+002	
-5.34671445E+000	-1.18207303E+002	
-5.32600115E+000	-1.18195701E+002	
-5.30528784E+000	-1.18217186E+002	
-5.28457454E+000	-1.18195075E+002	
-5.26386123E+000	-1.18187719E+002	
-5.24314792E+000	-1.18132736E+002	
-5.22243462E+000	-1.18101183E+002	
-5.20172131E+000	-1.18107186E+002	
-5.18100801E+000	-1.18057738E+002	
-5.16029470E+000	-1.18057162E+002	
-5.13958140E+000	-1.18017597E+002	
-5.11886809E+000	-1.17990507E+002	
-5.09815479E+000	-1.17997496E+002	
-5.07744148E+000	-1.17950552E+002	
-5.05672818E+000	-1.18009987E+002	
-5.03601487E+000	-1.18022507E+002	
-5.01530157E+000	-1.18049469E+002	
-4.99458826E+000	-1.18059080E+002	
-4.97387496E+000	-1.18007372E+002	
-4.95316165E+000	-1.17999586E+002	
-4.93244834E+000	-1.17958565E+002	
-4.91173504E+000	-1.17941919E+002	
-4.89102173E+000	-1.17944414E+002	
-4.87030843E+000	-1.17979988E+002	
-4.84959512E+000	-1.17969674E+002	
-4.82888182E+000	-1.17929529E+002	
-4.80816851E+000	-1.17922413E+002	
-4.78745521E+000	-1.17938498E+002	
-4.76674190E+000	-1.17967714E+002	
-4.74602860E+000	-1.17990326E+002	
-4.72531529E+000	-1.18040686E+002	
-4.70460199E+000	-1.18023413E+002	
-4.68388868E+000	-1.18068964E+002	
-4.66317538E+000	-1.18062317E+002	
-4.64246207E+000	-1.18091119E+002	
-4.62174877E+000	-1.18126422E+002	
-4.60103546E+000	-1.18167707E+002	
-4.58032215E+000	-1.18190232E+002	
-4.55960885E+000	-1.18164204E+002	
-4.53889554E+000	-1.18193680E+002	
-4.51818224E+000	-1.18130320E+002	
-4.49746893E+000	-1.18090338E+002	
-4.47675563E+000	-1.18141894E+002	
-4.45604232E+000	-1.18133071E+002	
-4.43532902E+000	-1.18131624E+002	
-4.41461571E+000	-1.18117061E+002	
-4.39390241E+000	-1.18136811E+002	
-4.37318910E+000	-1.18144466E+002	
-4.35247580E+000	-1.18123664E+002	
-4.33176249E+000	-1.18116477E+002	
-4.31104919E+000	-1.18108988E+002	
-4.29033588E+000	-1.18099688E+002	
-4.26962257E+000	-1.18091088E+002	
-4.24890927E+000	-1.18133753E+002	
-4.22819596E+000	-1.18152794E+002	
-4.20748266E+000	-1.18199201E+002	
-4.18676935E+000	-1.18147480E+002	
-4.16605605E+000	-1.18163124E+002	
-4.14534274E+000	-1.18185831E+002	
-4.12462944E+000	-1.18156361E+002	
-4.10391613E+000	-1.18142499E+002	
-4.08320283E+000	-1.18128406E+002	
-4.06248952E+000	-1.18118080E+002	
-4.04177622E+000	-1.18086776E+002	
-4.02106291E+000	-1.18123692E+002	
-4.00034961E+000	-1.18124410E+002	
-3.97963630E+000	-1.18087652E+002	
-3.95892299E+000	-1.18100852E+002	
-3.93820969E+000	-1.18080983E+002	
-3.91749638E+000	-1.18107843E+002	
-3.89678308E+000	-1.18073819E+002	
-3.87606977E+000	-1.17998186E+002	
-3.85535647E+000	-1.17998915E+002	
-3.83464316E+000	-1.17998637E+002	
-3.81392986E+000	-1.18001559E+002	
-3.79321655E+000	-1.18031595E+002	
-3.77250325E+000	-1.17963826E+002	
-3.75178994E+000	-1.17964930E+002	
-3.73107664E+000	-1.17965010E+002	
-3.71036333E+000	-1.17897857E+002	
-3.68965003E+000	-1.17922953E+002	
-3.66893672E+000	-1.17963523E+002	
-3.64822342E+000	-1.17924831E+002	
-3.62751011E+000	-1.17932738E+002	
-3.60679680E+000	-1.17932455E+002	
-3.58608350E+000	-1.17936754E+002	
-3.56537019E+000	-1.17968840E+002	
-3.54465689E+000	-1.17983828E+002	
-3.52394358E+000	-1.18007896E+002	
-3.50323028E+000	-1.18049620E+002	
-3.48251697E+000	-1.18084188E+002	
-3.46180367E+000	-1.18110551E+002	
-3.44109036E+000	-1.18124659E+002	
-3.42037706E+000	-1.18157111E+002	
-3.39966375E+000	-1.18192748E+002	
-3.37895045E+000	-1.18241072E+002	
-3.35823714E+000	-1.18233912E+002	
-3.33752384E+000	-1.18238881E+002	
-3.31681053E+000	-1.18244108E+002	
-3.29609722E+000	-1.18211923E+002	
-3.27538392E+000	-1.18226483E+002	
-3.25467061E+000	-1.18233874E+002	
-3.23395731E+000	-1.18223855E+002	
-3.21324400E+000	-1.18245863E+002	
-3.19253070E+000	-1.18245011E+002	
-3.17181739E+000	-1.18221578E+002	
-3.15110409E+000	-1.18198735E+002	
-3.13039078E+000	-1.18190732E+002	
-3.10967748E+000	-1.18228375E+002	
-3.08896417E+000	-1.18215591E+002	
-3.06825087E+000	-1.18197413E+002	
-3.04753756E+000	-1.18205359E+002	
-3.02682426E+000	-1.18171898E+002	
-3.00611095E+000	-1.18101956E+002	
-2.98539764E+000	-1.18136480E+002	
-2.96468434E+000	-1.18097395E+002	
-2.94397103E+000	-1.18071769E+002	
-2.92325773E+000	-1.18030449E+002	
-2.90254442E+000	-1.18027141E+002	
-2.88183112E+000	-1.18038216E+002	
-2.86111781E+000	-1.18085868E+002	
-2.84040451E+000	-1.18127331E+002	
-2.81969120E+000	-1.18163335E+002	
-2.79897790E+000	-1.18229394E+002	
-2.77826459E+000	-1.18194340E+002	
-2.75755129E+000	-1.18172338E+002	
-2.73683798E+000	-1.18180070E+002	
-2.71612468E+000	-1.18134657E+002	
-2.69541137E+000	-1.18121987E+002	
-2.67469807E+000	-1.18181476E+002	
-2.65398476E+000	-1.18200715E+002	
-2.63327145E+000	-1.18195691E+002	
-2.61255815E+000	-1.18140983E+002	
-2.59184484E+000	-1.18143977E+002	
-2.57113154E+000	-1.18138571E+002	
-2.55041823E+000	-1.18141113E+002	
-2.52970493E+000	-1.18193078E+002	
-2.50899162E+000	-1.18260430E+002	
-2.48827832E+000	-1.18242633E+002	
-2.46756501E+000	-1.18243444E+002	
-2.44685171E+000	-1.18246794E+002	
-2.42613840E+000	-1.18270425E+002	
-2.40542510E+000	-1.18278278E+002	
-2.38471179E+000	-1.18261239E+002	
-2.36399849E+000	-1.18239173E+002	
-2.34328518E+000	-1.18192057E+002	
-2.32257187E+000	-1.18140662E+002	
-2.30185857E+000	-1.18067122E+002	
-2.28114526E+000	-1.18087362E+002	
-2.26043196E+000	-1.18161723E+002	
-2.23971865E+000	-1.18149780E+002	
-2.21900535E+000	-1.18203766E+002	
-2.19829204E+000	-1.18225724E+002	
-2.17757874E+000	-1.18185554E+002	
-2.15686543E+000	-1.18175162E+002	
-2.13615213E+000	-1.18227470E+002	
-2.11543882E+000	-1.18229754E+002	
-2.09472552E+000	-1.18241963E+002	
-2.07401221E+000	-1.18213306E+002	
-2.05329891E+000	-1.18162424E+002	
-2.03258560E+000	-1.18173189E+002	
-2.01187229E+000	-1.18170841E+002	
-1.99115899E+000	-1.18175831E+002	
-1.97044568E+000	-1.18109559E+002	
-1.94973238E+000	-1.18124537E+002	
-1.92901907E+000	-1.18103340E+002	
-1.90830577E+000	-1.18059615E+002	
-1.88759246E+000	-1.18053556E+002	
-1.86687916E+000	-1.18089021E+002	
-1.84616585E+000	-1.18058793E+002	
-1.82545255E+000	-1.18138020E+002	
-1.80473924E+000	-1.18150556E+002	
-1.78402594E+000	-1.18187413E+002	
-1.76331263E+000	-1.18187685E+002	
-1.74259933E+000	-1.18139115E+002	
-1.72188602E+000	-1.18142600E+002	
-1.70117272E+000	-1.18211372E+002	
-1.68045941E+000	-1.18234736E+002	
-1.65974610E+000	-1.18192330E+002	
-1.63903280E+000	-1.18150802E+002	
-1.61831949E+000	-1.18206938E+002	
-1.59760619E+000	-1.18215078E+002	
-1.57689288E+000	-1.18225297E+002	
-1.55617958E+000	-1.18284121E+002	
-1.53546627E+000	-1.18267208E+002	
-1.51475297E+000	-1.18268059E+002	
-1.49403966E+000	-1.18240792E+002	
-1.47332636E+000	-1.18291938E+002	
-1.45261305E+000	-1.18257641E+002	
-1.43189975E+000	-1.18257458E+002	
-1.41118644E+000	-1.18253321E+002	
-1.39047314E+000	-1.18282528E+002	
-1.36975983E+000	-1.18240415E+002	
-1.34904652E+000	-1.18241496E+002	
-1.32833322E+000	-1.18189383E+002	
-1.30761991E+000	-1.18140291E+002	
-1.28690661E+000	-1.18149787E+002	
-1.26619330E+000	-1.18136973E+002	
-1.24548000E+000	-1.18186885E+002	
-1.22476669E+000	-1.18204777E+002	
-1.20405339E+000	-1.18100773E+002	
-1.18334008E+000	-1.18092331E+002	
-1.16262678E+000	-1.18158214E+002	
-1.14191347E+000	-1.18190252E+002	
-1.12120017E+000	-1.18183784E+002	
-1.10048686E+000	-1.18159001E+002	
-1.07977356E+000	-1.18167792E+002	
-1.05906025E+000	-1.18205192E+002	
-1.03834694E+000	-1.18186050E+002	
-1.01763364E+000	-1.18122686E+002	
-9.96920334E-001	-1.18037097E+002	
-9.76207029E-001	-1.17997312E+002	
-9.55493724E-001	-1.18012653E+002	
-9.34780418E-001	-1.18029211E+002	
-9.14067113E-001	-1.18068274E+002	
-8.93353808E-001	-1.18043746E+002	
-8.72640502E-001	-1.18027539E+002	
-8.51927197E-001	-1.18056166E+002	
-8.31213892E-001	-1.18088880E+002	
-8.10500586E-001	-1.18151491E+002	
-7.89787281E-001	-1.18163585E+002	
-7.69073976E-001	-1.18174873E+002	
-7.48360671E-001	-1.18164403E+002	
-7.27647365E-001	-1.18151780E+002	
-7.06934060E-001	-1.18174920E+002	
-6.86220755E-001	-1.18191840E+002	
-6.65507449E-001	-1.18221256E+002	
-6.44794144E-001	-1.18215186E+002	
-6.24080839E-001	-1.18178537E+002	
-6.03367533E-001	-1.18174660E+002	
-5.82654228E-001	-1.18151975E+002	
-5.61940923E-001	-1.18107438E+002	
-5.41227617E-001	-1.18069091E+002	
-5.20514312E-001	-1.18100133E+002	
-4.99801007E-001	-1.18203610E+002	
-4.79087701E-001	-1.18282282E+002	
-4.58374396E-001	-1.18317224E+002	
-4.37661091E-001	-1.18286962E+002	
-4.16947785E-001	-1.18268087E+002	
-3.96234480E-001	-1.18275970E+002	
-3.75521175E-001	-1.18283730E+002	
-3.54807869E-001	-1.18296348E+002	
-3.34094564E-001	-1.18292079E+002	
-3.13381259E-001	-1.18295347E+002	
-2.92667954E-001	-1.18199590E+002	
-2.71954648E-001	-1.17932266E+002	
-2.51241343E-001	-8.59133093E+001	
-2.30528038E-001	-8.56001835E+001	
-2.09814732E-001	-8.56001165E+001	
-1.89101427E-001	-8.56001150E+001	
-1.68388122E-001	-8.56001018E+001	
-1.47674816E-001	-8.56000721E+001	
-1.26961511E-001	-8.56000222E+001	
-1.06248206E-001	-8.55999879E+001	
-8.55349003E-002	-8.55999932E+001	
-6.48215950E-002	-8.56000209E+001	
-4.41082897E-002	-8.56000755E+001	
-2.33949844E-002	-8.56001062E+001	
-2.68167905E-003	-8.56001293E+001	
1.80316263E-002	-8.56001197E+001	
3.87449316E-002	-8.56001286E+001	
5.94582369E-002	-8.56001659E+001	
8.01715422E-002	-8.56001909E+001	
1.00884848E-001	-8.56002113E+001	
1.21598153E-001	-8.56002513E+001	
1.42311458E-001	-8.56002563E+001	
1.63024763E-001	-8.56002687E+001	
1.83738069E-001	-8.56002610E+001	
2.04451374E-001	-8.56002882E+001	
2.25164679E-001	-8.56004156E+001	
2.45877985E-001	-9.22127720E+001	
2.66591290E-001	-1.18443928E+002	
2.87304595E-001	-1.18608255E+002	
3.08017901E-001	-1.18661612E+002	
3.28731206E-001	-1.18627820E+002	
3.49444511E-001	-1.18658616E+002	
3.70157817E-001	-1.18781295E+002	
3.90871122E-001	-1.18860359E+002	
4.11584427E-001	-1.18919540E+002	
4.32297733E-001	-1.18950040E+002	
4.53011038E-001	-1.18964760E+002	
4.73724343E-001	-1.18943476E+002	
4.94437649E-001	-1.18897408E+002	
5.15150954E-001	-1.18913939E+002	
5.35864259E-001	-1.18876962E+002	
5.56577565E-001	-1.18830353E+002	
5.77290870E-001	-1.18860310E+002	
5.98004175E-001	-1.18891520E+002	
6.18717481E-001	-1.18849931E+002	
6.39430786E-001	-1.18835507E+002	
6.60144091E-001	-1.18873413E+002	
6.80857396E-001	-1.18913757E+002	
7.01570702E-001	-1.18950642E+002	
7.22284007E-001	-1.18949245E+002	
7.42997312E-001	-1.18948805E+002	
7.63710618E-001	-1.18925154E+002	
7.84423923E-001	-1.18915647E+002	
8.05137228E-001	-1.18913300E+002	
8.25850534E-001	-1.18949331E+002	
8.46563839E-001	-1.18954713E+002	
8.67277144E-001	-1.18999372E+002	
8.87990450E-001	-1.19032391E+002	
9.08703755E-001	-1.19008916E+002	
9.29417060E-001	-1.18978689E+002	
9.50130366E-001	-1.18984600E+002	
9.70843671E-001	-1.18984313E+002	
9.91556976E-001	-1.19049165E+002	
1.01227028E+000	-1.19048500E+002	
1.03298359E+000	-1.19087132E+002	
1.05369689E+000	-1.19164869E+002	
1.07441020E+000	-1.19158411E+002	
1.09512350E+000	-1.19109045E+002	
1.11583681E+000	-1.19089968E+002	
1.13655011E+000	-1.19131463E+002	
1.15726342E+000	-1.19122667E+002	
1.17797672E+000	-1.19139462E+002	
1.19869003E+000	-1.19148732E+002	
1.21940333E+000	-1.19172782E+002	
1.24011664E+000	-1.19174416E+002	
1.26082995E+000	-1.19143095E+002	
1.28154325E+000	-1.19176624E+002	
1.30225656E+000	-1.19208348E+002	
1.32296986E+000	-1.19191596E+002	
1.34368317E+000	-1.19256734E+002	
1.36439647E+000	-1.19279212E+002	
1.38510978E+000	-1.19309991E+002	
1.40582308E+000	-1.19360759E+002	
1.42653639E+000	-1.19357704E+002	
1.44724969E+000	-1.19320376E+002	
1.46796300E+000	-1.19326812E+002	
1.48867630E+000	-1.19325265E+002	
1.50938961E+000	-1.19322780E+002	
1.53010291E+000	-1.19291305E+002	
1.55081622E+000	-1.19226853E+002	
1.57152953E+000	-1.19170438E+002	
1.59224283E+000	-1.19125964E+002	
1.61295614E+000	-1.19114460E+002	
1.63366944E+000	-1.19076026E+002	
1.65438275E+000	-1.19037225E+002	
1.67509605E+000	-1.19016250E+002	
1.69580936E+000	-1.18987576E+002	
1.71652266E+000	-1.18910150E+002	
1.73723597E+000	-1.18889230E+002	
1.75794927E+000	-1.18870358E+002	
1.77866258E+000	-1.18853983E+002	
1.79937588E+000	-1.18841847E+002	
1.82008919E+000	-1.18831139E+002	
1.84080249E+000	-1.18809416E+002	
