Time (ns)	Amplitude (dB)	
-1.00072081E+001	-1.20643453E+002	
-9.98649484E+000	-1.20317261E+002	
-9.96578154E+000	-1.19959802E+002	
-9.94506823E+000	-1.19691098E+002	
-9.92435493E+000	-1.19455828E+002	
-9.90364162E+000	-1.19214274E+002	
-9.88292832E+000	-1.18997426E+002	
-9.86221501E+000	-1.18784047E+002	
-9.84150171E+000	-1.18584050E+002	
-9.82078840E+000	-1.18401010E+002	
-9.80007509E+000	-1.18203535E+002	
-9.77936179E+000	-1.18002453E+002	
-9.75864848E+000	-1.17947936E+002	
-9.73793518E+000	-1.17965286E+002	
-9.71722187E+000	-1.17963119E+002	
-9.69650857E+000	-1.17968231E+002	
-9.67579526E+000	-1.18029475E+002	
-9.65508196E+000	-1.18016650E+002	
-9.63436865E+000	-1.17966343E+002	
-9.61365535E+000	-1.17966450E+002	
-9.59294204E+000	-1.17993177E+002	
-9.57222874E+000	-1.18015060E+002	
-9.55151543E+000	-1.18034715E+002	
-9.53080213E+000	-1.18025759E+002	
-9.51008882E+000	-1.18055043E+002	
-9.48937552E+000	-1.18079086E+002	
-9.46866221E+000	-1.18079769E+002	
-9.44794890E+000	-1.18054357E+002	
-9.42723560E+000	-1.18011796E+002	
-9.40652229E+000	-1.18008723E+002	
-9.38580899E+000	-1.17987855E+002	
-9.36509568E+000	-1.17981652E+002	
-9.34438238E+000	-1.17946430E+002	
-9.32366907E+000	-1.17921111E+002	
-9.30295577E+000	-1.17916625E+002	
-9.28224246E+000	-1.17938697E+002	
-9.26152916E+000	-1.17889967E+002	
-9.24081585E+000	-1.17833696E+002	
-9.22010255E+000	-1.17826608E+002	
-9.19938924E+000	-1.17864252E+002	
-9.17867594E+000	-1.17848772E+002	
-9.15796263E+000	-1.17850268E+002	
-9.13724932E+000	-1.17908287E+002	
-9.11653602E+000	-1.17914314E+002	
-9.09582271E+000	-1.17870134E+002	
-9.07510941E+000	-1.17880641E+002	
-9.05439610E+000	-1.17878617E+002	
-9.03368280E+000	-1.17751129E+002	
-9.01296949E+000	-1.17735802E+002	
-8.99225619E+000	-1.17738631E+002	
-8.97154288E+000	-1.17788243E+002	
-8.95082958E+000	-1.17802632E+002	
-8.93011627E+000	-1.17831409E+002	
-8.90940297E+000	-1.17853114E+002	
-8.88868966E+000	-1.17875915E+002	
-8.86797636E+000	-1.17865665E+002	
-8.84726305E+000	-1.17882599E+002	
-8.82654974E+000	-1.17869986E+002	
-8.80583644E+000	-1.17884156E+002	
-8.78512313E+000	-1.17885239E+002	
-8.76440983E+000	-1.17900921E+002	
-8.74369652E+000	-1.17962666E+002	
-8.72298322E+000	-1.17978734E+002	
-8.70226991E+000	-1.17909350E+002	
-8.68155661E+000	-1.17876871E+002	
-8.66084330E+000	-1.17908634E+002	
-8.64013000E+000	-1.17879169E+002	
-8.61941669E+000	-1.17842950E+002	
-8.59870339E+000	-1.17882184E+002	
-8.57799008E+000	-1.17878313E+002	
-8.55727678E+000	-1.17835575E+002	
-8.53656347E+000	-1.17952500E+002	
-8.51585017E+000	-1.17980863E+002	
-8.49513686E+000	-1.17985696E+002	
-8.47442355E+000	-1.17971237E+002	
-8.45371025E+000	-1.17998771E+002	
-8.43299694E+000	-1.18039784E+002	
-8.41228364E+000	-1.18002116E+002	
-8.39157033E+000	-1.17974469E+002	
-8.37085703E+000	-1.18019193E+002	
-8.35014372E+000	-1.18034386E+002	
-8.32943042E+000	-1.18051321E+002	
-8.30871711E+000	-1.18006888E+002	
-8.28800381E+000	-1.18041178E+002	
-8.26729050E+000	-1.18018788E+002	
-8.24657720E+000	-1.18005079E+002	
-8.22586389E+000	-1.17986374E+002	
-8.20515059E+000	-1.18031913E+002	
-8.18443728E+000	-1.18033663E+002	
-8.16372397E+000	-1.18021095E+002	
-8.14301067E+000	-1.17973033E+002	
-8.12229736E+000	-1.17982639E+002	
-8.10158406E+000	-1.17978899E+002	
-8.08087075E+000	-1.17980042E+002	
-8.06015745E+000	-1.17964821E+002	
-8.03944414E+000	-1.17912809E+002	
-8.01873084E+000	-1.17924894E+002	
-7.99801753E+000	-1.17905622E+002	
-7.97730423E+000	-1.17900621E+002	
-7.95659092E+000	-1.17878453E+002	
-7.93587762E+000	-1.17890937E+002	
-7.91516431E+000	-1.17931940E+002	
-7.89445101E+000	-1.17933447E+002	
-7.87373770E+000	-1.17917508E+002	
-7.85302439E+000	-1.17914421E+002	
-7.83231109E+000	-1.17902433E+002	
-7.81159778E+000	-1.17958970E+002	
-7.79088448E+000	-1.17984757E+002	
-7.77017117E+000	-1.18013207E+002	
-7.74945787E+000	-1.18031351E+002	
-7.72874456E+000	-1.18038328E+002	
-7.70803126E+000	-1.17993867E+002	
-7.68731795E+000	-1.18026087E+002	
-7.66660465E+000	-1.18017031E+002	
-7.64589134E+000	-1.18023935E+002	
-7.62517804E+000	-1.18012557E+002	
-7.60446473E+000	-1.17954793E+002	
-7.58375143E+000	-1.17967068E+002	
-7.56303812E+000	-1.17997172E+002	
-7.54232482E+000	-1.18066078E+002	
-7.52161151E+000	-1.18053749E+002	
-7.50089820E+000	-1.18073637E+002	
-7.48018490E+000	-1.18048318E+002	
-7.45947159E+000	-1.18088289E+002	
-7.43875829E+000	-1.18023133E+002	
-7.41804498E+000	-1.17931826E+002	
-7.39733168E+000	-1.17977239E+002	
-7.37661837E+000	-1.17984665E+002	
-7.35590507E+000	-1.17987298E+002	
-7.33519176E+000	-1.18000846E+002	
-7.31447846E+000	-1.18016353E+002	
-7.29376515E+000	-1.17988634E+002	
-7.27305185E+000	-1.17957128E+002	
-7.25233854E+000	-1.17990853E+002	
-7.23162524E+000	-1.18007204E+002	
-7.21091193E+000	-1.18000837E+002	
-7.19019862E+000	-1.17992761E+002	
-7.16948532E+000	-1.18040682E+002	
-7.14877201E+000	-1.18105220E+002	
-7.12805871E+000	-1.18157936E+002	
-7.10734540E+000	-1.18229579E+002	
-7.08663210E+000	-1.18264144E+002	
-7.06591879E+000	-1.18242478E+002	
-7.04520549E+000	-1.18228153E+002	
-7.02449218E+000	-1.18204351E+002	
-7.00377888E+000	-1.18167659E+002	
-6.98306557E+000	-1.18202836E+002	
-6.96235227E+000	-1.18159843E+002	
-6.94163896E+000	-1.18174745E+002	
-6.92092566E+000	-1.18242389E+002	
-6.90021235E+000	-1.18230405E+002	
-6.87949904E+000	-1.18203721E+002	
-6.85878574E+000	-1.18196050E+002	
-6.83807243E+000	-1.18224914E+002	
-6.81735913E+000	-1.18241415E+002	
-6.79664582E+000	-1.18199417E+002	
-6.77593252E+000	-1.18243059E+002	
-6.75521921E+000	-1.18196799E+002	
-6.73450591E+000	-1.18182457E+002	
-6.71379260E+000	-1.18158183E+002	
-6.69307930E+000	-1.18160807E+002	
-6.67236599E+000	-1.18119680E+002	
-6.65165269E+000	-1.18101922E+002	
-6.63093938E+000	-1.18123993E+002	
-6.61022608E+000	-1.18136756E+002	
-6.58951277E+000	-1.18126149E+002	
-6.56879947E+000	-1.18119078E+002	
-6.54808616E+000	-1.18104620E+002	
-6.52737285E+000	-1.18081081E+002	
-6.50665955E+000	-1.18102446E+002	
-6.48594624E+000	-1.18147462E+002	
-6.46523294E+000	-1.18189227E+002	
-6.44451963E+000	-1.18128089E+002	
-6.42380633E+000	-1.18089399E+002	
-6.40309302E+000	-1.18098208E+002	
-6.38237972E+000	-1.18077877E+002	
-6.36166641E+000	-1.18073461E+002	
-6.34095311E+000	-1.18070975E+002	
-6.32023980E+000	-1.18054541E+002	
-6.29952650E+000	-1.18060104E+002	
-6.27881319E+000	-1.18033805E+002	
-6.25809989E+000	-1.18041806E+002	
-6.23738658E+000	-1.18030859E+002	
-6.21667327E+000	-1.18022626E+002	
-6.19595997E+000	-1.18041641E+002	
-6.17524666E+000	-1.18036087E+002	
-6.15453336E+000	-1.18033424E+002	
-6.13382005E+000	-1.18006697E+002	
-6.11310675E+000	-1.18011064E+002	
-6.09239344E+000	-1.18012820E+002	
-6.07168014E+000	-1.17958320E+002	
-6.05096683E+000	-1.18025765E+002	
-6.03025353E+000	-1.18039001E+002	
-6.00954022E+000	-1.18031951E+002	
-5.98882692E+000	-1.17982265E+002	
-5.96811361E+000	-1.17989678E+002	
-5.94740031E+000	-1.18040017E+002	
-5.92668700E+000	-1.18086541E+002	
-5.90597369E+000	-1.18097066E+002	
-5.88526039E+000	-1.18135010E+002	
-5.86454708E+000	-1.18155100E+002	
-5.84383378E+000	-1.18120903E+002	
-5.82312047E+000	-1.18140237E+002	
-5.80240717E+000	-1.18120199E+002	
-5.78169386E+000	-1.18130321E+002	
-5.76098056E+000	-1.18133313E+002	
-5.74026725E+000	-1.18139316E+002	
-5.71955395E+000	-1.18188248E+002	
-5.69884064E+000	-1.18186385E+002	
-5.67812734E+000	-1.18217901E+002	
-5.65741403E+000	-1.18212750E+002	
-5.63670073E+000	-1.18219880E+002	
-5.61598742E+000	-1.18197931E+002	
-5.59527412E+000	-1.18153629E+002	
-5.57456081E+000	-1.18218850E+002	
-5.55384750E+000	-1.18127606E+002	
-5.53313420E+000	-1.18060174E+002	
-5.51242089E+000	-1.18074976E+002	
-5.49170759E+000	-1.18075646E+002	
-5.47099428E+000	-1.18051809E+002	
-5.45028098E+000	-1.18107159E+002	
-5.42956767E+000	-1.18151066E+002	
-5.40885437E+000	-1.18139286E+002	
-5.38814106E+000	-1.18123113E+002	
-5.36742776E+000	-1.18100770E+002	
-5.34671445E+000	-1.18133860E+002	
-5.32600115E+000	-1.18130441E+002	
-5.30528784E+000	-1.18144763E+002	
-5.28457454E+000	-1.18121459E+002	
-5.26386123E+000	-1.18113009E+002	
-5.24314792E+000	-1.18049328E+002	
-5.22243462E+000	-1.18011362E+002	
-5.20172131E+000	-1.18020173E+002	
-5.18100801E+000	-1.17970239E+002	
-5.16029470E+000	-1.17964439E+002	
-5.13958140E+000	-1.17929821E+002	
-5.11886809E+000	-1.17898590E+002	
-5.09815479E+000	-1.17906165E+002	
-5.07744148E+000	-1.17867394E+002	
-5.05672818E+000	-1.17937414E+002	
-5.03601487E+000	-1.17957795E+002	
-5.01530157E+000	-1.17994918E+002	
-4.99458826E+000	-1.18002677E+002	
-4.97387496E+000	-1.17951372E+002	
-4.95316165E+000	-1.17936578E+002	
-4.93244834E+000	-1.17887909E+002	
-4.91173504E+000	-1.17871414E+002	
-4.89102173E+000	-1.17875173E+002	
-4.87030843E+000	-1.17909808E+002	
-4.84959512E+000	-1.17894999E+002	
-4.82888182E+000	-1.17863712E+002	
-4.80816851E+000	-1.17860008E+002	
-4.78745521E+000	-1.17877566E+002	
-4.76674190E+000	-1.17905971E+002	
-4.74602860E+000	-1.17932009E+002	
-4.72531529E+000	-1.17976485E+002	
-4.70460199E+000	-1.17958317E+002	
-4.68388868E+000	-1.18003048E+002	
-4.66317538E+000	-1.17995480E+002	
-4.64246207E+000	-1.18020071E+002	
-4.62174877E+000	-1.18064509E+002	
-4.60103546E+000	-1.18111988E+002	
-4.58032215E+000	-1.18137945E+002	
-4.55960885E+000	-1.18118702E+002	
-4.53889554E+000	-1.18153312E+002	
-4.51818224E+000	-1.18075319E+002	
-4.49746893E+000	-1.18026994E+002	
-4.47675563E+000	-1.18074504E+002	
-4.45604232E+000	-1.18068232E+002	
-4.43532902E+000	-1.18071472E+002	
-4.41461571E+000	-1.18059712E+002	
-4.39390241E+000	-1.18076903E+002	
-4.37318910E+000	-1.18082024E+002	
-4.35247580E+000	-1.18056955E+002	
-4.33176249E+000	-1.18045293E+002	
-4.31104919E+000	-1.18035786E+002	
-4.29033588E+000	-1.18026631E+002	
-4.26962257E+000	-1.18016937E+002	
-4.24890927E+000	-1.18061752E+002	
-4.22819596E+000	-1.18083457E+002	
-4.20748266E+000	-1.18125750E+002	
-4.18676935E+000	-1.18074635E+002	
-4.16605605E+000	-1.18080966E+002	
-4.14534274E+000	-1.18113017E+002	
-4.12462944E+000	-1.18081401E+002	
-4.10391613E+000	-1.18072598E+002	
-4.08320283E+000	-1.18065528E+002	
-4.06248952E+000	-1.18049451E+002	
-4.04177622E+000	-1.18007563E+002	
-4.02106291E+000	-1.18045803E+002	
-4.00034961E+000	-1.18050201E+002	
-3.97963630E+000	-1.18013368E+002	
-3.95892299E+000	-1.18026019E+002	
-3.93820969E+000	-1.18005191E+002	
-3.91749638E+000	-1.18023307E+002	
-3.89678308E+000	-1.17988479E+002	
-3.87606977E+000	-1.17915769E+002	
-3.85535647E+000	-1.17917517E+002	
-3.83464316E+000	-1.17916269E+002	
-3.81392986E+000	-1.17909043E+002	
-3.79321655E+000	-1.17938735E+002	
-3.77250325E+000	-1.17876457E+002	
-3.75178994E+000	-1.17875116E+002	
-3.73107664E+000	-1.17883199E+002	
-3.71036333E+000	-1.17821867E+002	
-3.68965003E+000	-1.17850163E+002	
-3.66893672E+000	-1.17895780E+002	
-3.64822342E+000	-1.17855028E+002	
-3.62751011E+000	-1.17868343E+002	
-3.60679680E+000	-1.17868749E+002	
-3.58608350E+000	-1.17865081E+002	
-3.56537019E+000	-1.17893764E+002	
-3.54465689E+000	-1.17908059E+002	
-3.52394358E+000	-1.17932606E+002	
-3.50323028E+000	-1.17974427E+002	
-3.48251697E+000	-1.18007125E+002	
-3.46180367E+000	-1.18029007E+002	
-3.44109036E+000	-1.18043472E+002	
-3.42037706E+000	-1.18075980E+002	
-3.39966375E+000	-1.18109132E+002	
-3.37895045E+000	-1.18163513E+002	
-3.35823714E+000	-1.18158873E+002	
-3.33752384E+000	-1.18163986E+002	
-3.31681053E+000	-1.18179493E+002	
-3.29609722E+000	-1.18153954E+002	
-3.27538392E+000	-1.18166364E+002	
-3.25467061E+000	-1.18170061E+002	
-3.23395731E+000	-1.18152854E+002	
-3.21324400E+000	-1.18173591E+002	
-3.19253070E+000	-1.18172690E+002	
-3.17181739E+000	-1.18149500E+002	
-3.15110409E+000	-1.18123090E+002	
-3.13039078E+000	-1.18110093E+002	
-3.10967748E+000	-1.18145268E+002	
-3.08896417E+000	-1.18137944E+002	
-3.06825087E+000	-1.18131475E+002	
-3.04753756E+000	-1.18141001E+002	
-3.02682426E+000	-1.18107121E+002	
-3.00611095E+000	-1.18039927E+002	
-2.98539764E+000	-1.18078247E+002	
-2.96468434E+000	-1.18043906E+002	
-2.94397103E+000	-1.18019313E+002	
-2.92325773E+000	-1.17978379E+002	
-2.90254442E+000	-1.17977458E+002	
-2.88183112E+000	-1.17985916E+002	
-2.86111781E+000	-1.18031800E+002	
-2.84040451E+000	-1.18078059E+002	
-2.81969120E+000	-1.18114968E+002	
-2.79897790E+000	-1.18177615E+002	
-2.77826459E+000	-1.18132791E+002	
-2.75755129E+000	-1.18110474E+002	
-2.73683798E+000	-1.18126725E+002	
-2.71612468E+000	-1.18078642E+002	
-2.69541137E+000	-1.18051593E+002	
-2.67469807E+000	-1.18107810E+002	
-2.65398476E+000	-1.18132196E+002	
-2.63327145E+000	-1.18130573E+002	
-2.61255815E+000	-1.18073414E+002	
-2.59184484E+000	-1.18065709E+002	
-2.57113154E+000	-1.18054171E+002	
-2.55041823E+000	-1.18059726E+002	
-2.52970493E+000	-1.18116941E+002	
-2.50899162E+000	-1.18183301E+002	
-2.48827832E+000	-1.18166781E+002	
-2.46756501E+000	-1.18168165E+002	
-2.44685171E+000	-1.18171577E+002	
-2.42613840E+000	-1.18189925E+002	
-2.40542510E+000	-1.18200663E+002	
-2.38471179E+000	-1.18178189E+002	
-2.36399849E+000	-1.18154658E+002	
-2.34328518E+000	-1.18102614E+002	
-2.32257187E+000	-1.18049254E+002	
-2.30185857E+000	-1.17977058E+002	
-2.28114526E+000	-1.18003099E+002	
-2.26043196E+000	-1.18079792E+002	
-2.23971865E+000	-1.18065298E+002	
-2.21900535E+000	-1.18116755E+002	
-2.19829204E+000	-1.18145853E+002	
-2.17757874E+000	-1.18107400E+002	
-2.15686543E+000	-1.18094973E+002	
-2.13615213E+000	-1.18149215E+002	
-2.11543882E+000	-1.18156217E+002	
-2.09472552E+000	-1.18171643E+002	
-2.07401221E+000	-1.18139435E+002	
-2.05329891E+000	-1.18082420E+002	
-2.03258560E+000	-1.18085733E+002	
-2.01187229E+000	-1.18078150E+002	
-1.99115899E+000	-1.18081044E+002	
-1.97044568E+000	-1.18006745E+002	
-1.94973238E+000	-1.18017198E+002	
-1.92901907E+000	-1.17996142E+002	
-1.90830577E+000	-1.17949330E+002	
-1.88759246E+000	-1.17951446E+002	
-1.86687916E+000	-1.17989369E+002	
-1.84616585E+000	-1.17962773E+002	
-1.82545255E+000	-1.18039303E+002	
-1.80473924E+000	-1.18050765E+002	
-1.78402594E+000	-1.18086134E+002	
-1.76331263E+000	-1.18088183E+002	
-1.74259933E+000	-1.18043178E+002	
-1.72188602E+000	-1.18043660E+002	
-1.70117272E+000	-1.18115307E+002	
-1.68045941E+000	-1.18140647E+002	
-1.65974610E+000	-1.18098971E+002	
-1.63903280E+000	-1.18061125E+002	
-1.61831949E+000	-1.18118731E+002	
-1.59760619E+000	-1.18133042E+002	
-1.57689288E+000	-1.18149069E+002	
-1.55617958E+000	-1.18210002E+002	
-1.53546627E+000	-1.18198189E+002	
-1.51475297E+000	-1.18202761E+002	
-1.49403966E+000	-1.18178929E+002	
-1.47332636E+000	-1.18237422E+002	
-1.45261305E+000	-1.18207973E+002	
-1.43189975E+000	-1.18211577E+002	
-1.41118644E+000	-1.18207459E+002	
-1.39047314E+000	-1.18228302E+002	
-1.36975983E+000	-1.18186157E+002	
-1.34904652E+000	-1.18183110E+002	
-1.32833322E+000	-1.18136137E+002	
-1.30761991E+000	-1.18086454E+002	
-1.28690661E+000	-1.18096231E+002	
-1.26619330E+000	-1.18084562E+002	
-1.24548000E+000	-1.18130705E+002	
-1.22476669E+000	-1.18150246E+002	
-1.20405339E+000	-1.18050737E+002	
-1.18334008E+000	-1.18037959E+002	
-1.16262678E+000	-1.18103345E+002	
-1.14191347E+000	-1.18132107E+002	
-1.12120017E+000	-1.18121624E+002	
-1.10048686E+000	-1.18093872E+002	
-1.07977356E+000	-1.18100343E+002	
-1.05906025E+000	-1.18139453E+002	
-1.03834694E+000	-1.18121779E+002	
-1.01763364E+000	-1.18058939E+002	
-9.96920334E-001	-1.17972345E+002	
-9.76207029E-001	-1.17927157E+002	
-9.55493724E-001	-1.17943403E+002	
-9.34780418E-001	-1.17962253E+002	
-9.14067113E-001	-1.18003387E+002	
-8.93353808E-001	-1.17989037E+002	
-8.72640502E-001	-1.17966724E+002	
-8.51927197E-001	-1.17997499E+002	
-8.31213892E-001	-1.18026359E+002	
-8.10500586E-001	-1.18085776E+002	
-7.89787281E-001	-1.18103507E+002	
-7.69073976E-001	-1.18115290E+002	
-7.48360671E-001	-1.18102603E+002	
-7.27647365E-001	-1.18098619E+002	
-7.06934060E-001	-1.18127096E+002	
-6.86220755E-001	-1.18151139E+002	
-6.65507449E-001	-1.18178792E+002	
-6.44794144E-001	-1.18174056E+002	
-6.24080839E-001	-1.18134909E+002	
-6.03367533E-001	-1.18131849E+002	
-5.82654228E-001	-1.18111755E+002	
-5.61940923E-001	-1.18062141E+002	
-5.41227617E-001	-1.18019164E+002	
-5.20514312E-001	-1.18047284E+002	
-4.99801007E-001	-1.18147919E+002	
-4.79087701E-001	-1.18232983E+002	
-4.58374396E-001	-1.18267560E+002	
-4.37661091E-001	-1.18229069E+002	
-4.16947785E-001	-1.18206446E+002	
-3.96234480E-001	-1.18210958E+002	
-3.75521175E-001	-1.18215448E+002	
-3.54807869E-001	-1.18217320E+002	
-3.34094564E-001	-1.18219880E+002	
-3.13381259E-001	-1.18235023E+002	
-2.92667954E-001	-1.18209301E+002	
-2.71954648E-001	-1.18157868E+002	
-2.51241343E-001	-8.60075051E+001	
-2.30528038E-001	-8.56662947E+001	
-2.09814732E-001	-8.56662580E+001	
-1.89101427E-001	-8.56662573E+001	
-1.68388122E-001	-8.56662511E+001	
-1.47674816E-001	-8.56662306E+001	
-1.26961511E-001	-8.56661604E+001	
-1.06248206E-001	-8.56661086E+001	
-8.55349003E-002	-8.56661289E+001	
-6.48215950E-002	-8.56661599E+001	
-4.41082897E-002	-8.56662220E+001	
-2.33949844E-002	-8.56662545E+001	
-2.68167905E-003	-8.56662761E+001	
1.80316263E-002	-8.56662685E+001	
3.87449316E-002	-8.56662774E+001	
5.94582369E-002	-8.56663257E+001	
8.01715422E-002	-8.56663552E+001	
1.00884848E-001	-8.56663730E+001	
1.21598153E-001	-8.56664229E+001	
1.42311458E-001	-8.56664395E+001	
1.63024763E-001	-8.56664503E+001	
1.83738069E-001	-8.56664381E+001	
2.04451374E-001	-8.56664342E+001	
2.25164679E-001	-8.56664471E+001	
2.45877985E-001	-9.21609603E+001	
2.66591290E-001	-1.18500841E+002	
2.87304595E-001	-1.18593335E+002	
3.08017901E-001	-1.18633684E+002	
3.28731206E-001	-1.18592372E+002	
3.49444511E-001	-1.18605744E+002	
3.70157817E-001	-1.18746893E+002	
3.90871122E-001	-1.18885408E+002	
4.11584427E-001	-1.18915495E+002	
4.32297733E-001	-1.18942115E+002	
4.53011038E-001	-1.18954236E+002	
4.73724343E-001	-1.18934493E+002	
4.94437649E-001	-1.18895160E+002	
5.15150954E-001	-1.18913965E+002	
5.35864259E-001	-1.18881584E+002	
5.56577565E-001	-1.18827480E+002	
5.77290870E-001	-1.18854440E+002	
5.98004175E-001	-1.18895110E+002	
6.18717481E-001	-1.18846918E+002	
6.39430786E-001	-1.18827448E+002	
6.60144091E-001	-1.18863908E+002	
6.80857396E-001	-1.18899459E+002	
7.01570702E-001	-1.18932237E+002	
7.22284007E-001	-1.18941880E+002	
7.42997312E-001	-1.18940894E+002	
7.63710618E-001	-1.18916278E+002	
7.84423923E-001	-1.18907545E+002	
8.05137228E-001	-1.18908290E+002	
8.25850534E-001	-1.18943070E+002	
8.46563839E-001	-1.18945261E+002	
8.67277144E-001	-1.18988202E+002	
8.87990450E-001	-1.19018751E+002	
9.08703755E-001	-1.18987518E+002	
9.29417060E-001	-1.18958109E+002	
9.50130366E-001	-1.18960010E+002	
9.70843671E-001	-1.18960818E+002	
9.91556976E-001	-1.19027897E+002	
1.01227028E+000	-1.19024517E+002	
1.03298359E+000	-1.19063425E+002	
1.05369689E+000	-1.19133069E+002	
1.07441020E+000	-1.19123168E+002	
1.09512350E+000	-1.19069511E+002	
1.11583681E+000	-1.19041158E+002	
1.13655011E+000	-1.19074286E+002	
1.15726342E+000	-1.19068156E+002	
1.17797672E+000	-1.19088866E+002	
1.19869003E+000	-1.19101824E+002	
1.21940333E+000	-1.19122759E+002	
1.24011664E+000	-1.19125009E+002	
1.26082995E+000	-1.19091493E+002	
1.28154325E+000	-1.19122054E+002	
1.30225656E+000	-1.19150985E+002	
1.32296986E+000	-1.19129393E+002	
1.34368317E+000	-1.19195040E+002	
1.36439647E+000	-1.19232218E+002	
1.38510978E+000	-1.19260674E+002	
1.40582308E+000	-1.19303974E+002	
1.42653639E+000	-1.19302384E+002	
1.44724969E+000	-1.19267521E+002	
1.46796300E+000	-1.19273176E+002	
1.48867630E+000	-1.19269398E+002	
1.50938961E+000	-1.19262795E+002	
1.53010291E+000	-1.19228735E+002	
1.55081622E+000	-1.19165740E+002	
1.57152953E+000	-1.19111279E+002	
1.59224283E+000	-1.19073591E+002	
1.61295614E+000	-1.19061130E+002	
1.63366944E+000	-1.19018866E+002	
1.65438275E+000	-1.18976780E+002	
1.67509605E+000	-1.18957842E+002	
1.69580936E+000	-1.18926437E+002	
1.71652266E+000	-1.18854044E+002	
1.73723597E+000	-1.18839811E+002	
1.75794927E+000	-1.18821976E+002	
1.77866258E+000	-1.18806409E+002	
1.79937588E+000	-1.18787503E+002	
1.82008919E+000	-1.18779246E+002	
1.84080249E+000	-1.18757804E+002	
