Time (ns)	Amplitude (dB)	
-1.00072081E+001	-1.20641065E+002	
-9.98649484E+000	-1.20312350E+002	
-9.96578154E+000	-1.19954741E+002	
-9.94506823E+000	-1.19692213E+002	
-9.92435493E+000	-1.19456154E+002	
-9.90364162E+000	-1.19217982E+002	
-9.88292832E+000	-1.19002458E+002	
-9.86221501E+000	-1.18792177E+002	
-9.84150171E+000	-1.18591231E+002	
-9.82078840E+000	-1.18408832E+002	
-9.80007509E+000	-1.18213906E+002	
-9.77936179E+000	-1.18014704E+002	
-9.75864848E+000	-1.17956888E+002	
-9.73793518E+000	-1.17970888E+002	
-9.71722187E+000	-1.17973484E+002	
-9.69650857E+000	-1.17976312E+002	
-9.67579526E+000	-1.18037770E+002	
-9.65508196E+000	-1.18026085E+002	
-9.63436865E+000	-1.17975262E+002	
-9.61365535E+000	-1.17978709E+002	
-9.59294204E+000	-1.18006976E+002	
-9.57222874E+000	-1.18030910E+002	
-9.55151543E+000	-1.18045447E+002	
-9.53080213E+000	-1.18037303E+002	
-9.51008882E+000	-1.18072304E+002	
-9.48937552E+000	-1.18097380E+002	
-9.46866221E+000	-1.18101676E+002	
-9.44794890E+000	-1.18073355E+002	
-9.42723560E+000	-1.18028035E+002	
-9.40652229E+000	-1.18020918E+002	
-9.38580899E+000	-1.17999699E+002	
-9.36509568E+000	-1.17989774E+002	
-9.34438238E+000	-1.17954010E+002	
-9.32366907E+000	-1.17927648E+002	
-9.30295577E+000	-1.17923017E+002	
-9.28224246E+000	-1.17937693E+002	
-9.26152916E+000	-1.17891308E+002	
-9.24081585E+000	-1.17841239E+002	
-9.22010255E+000	-1.17826609E+002	
-9.19938924E+000	-1.17862216E+002	
-9.17867594E+000	-1.17845530E+002	
-9.15796263E+000	-1.17851390E+002	
-9.13724932E+000	-1.17912122E+002	
-9.11653602E+000	-1.17916798E+002	
-9.09582271E+000	-1.17868268E+002	
-9.07510941E+000	-1.17873257E+002	
-9.05439610E+000	-1.17871652E+002	
-9.03368280E+000	-1.17742428E+002	
-9.01296949E+000	-1.17723362E+002	
-8.99225619E+000	-1.17723621E+002	
-8.97154288E+000	-1.17769753E+002	
-8.95082958E+000	-1.17789611E+002	
-8.93011627E+000	-1.17823849E+002	
-8.90940297E+000	-1.17852177E+002	
-8.88868966E+000	-1.17877885E+002	
-8.86797636E+000	-1.17871995E+002	
-8.84726305E+000	-1.17888009E+002	
-8.82654974E+000	-1.17876771E+002	
-8.80583644E+000	-1.17890967E+002	
-8.78512313E+000	-1.17898867E+002	
-8.76440983E+000	-1.17917446E+002	
-8.74369652E+000	-1.17972188E+002	
-8.72298322E+000	-1.17988160E+002	
-8.70226991E+000	-1.17920658E+002	
-8.68155661E+000	-1.17889677E+002	
-8.66084330E+000	-1.17918597E+002	
-8.64013000E+000	-1.17888944E+002	
-8.61941669E+000	-1.17849449E+002	
-8.59870339E+000	-1.17894184E+002	
-8.57799008E+000	-1.17900187E+002	
-8.55727678E+000	-1.17862217E+002	
-8.53656347E+000	-1.17982858E+002	
-8.51585017E+000	-1.18006689E+002	
-8.49513686E+000	-1.18010528E+002	
-8.47442355E+000	-1.17997116E+002	
-8.45371025E+000	-1.18026073E+002	
-8.43299694E+000	-1.18062637E+002	
-8.41228364E+000	-1.18018660E+002	
-8.39157033E+000	-1.17988083E+002	
-8.37085703E+000	-1.18031212E+002	
-8.35014372E+000	-1.18047312E+002	
-8.32943042E+000	-1.18068618E+002	
-8.30871711E+000	-1.18024302E+002	
-8.28800381E+000	-1.18059522E+002	
-8.26729050E+000	-1.18046261E+002	
-8.24657720E+000	-1.18044184E+002	
-8.22586389E+000	-1.18022250E+002	
-8.20515059E+000	-1.18067814E+002	
-8.18443728E+000	-1.18063127E+002	
-8.16372397E+000	-1.18046759E+002	
-8.14301067E+000	-1.17999881E+002	
-8.12229736E+000	-1.18013463E+002	
-8.10158406E+000	-1.18009600E+002	
-8.08087075E+000	-1.17995379E+002	
-8.06015745E+000	-1.17973589E+002	
-8.03944414E+000	-1.17924484E+002	
-8.01873084E+000	-1.17941676E+002	
-7.99801753E+000	-1.17928363E+002	
-7.97730423E+000	-1.17918791E+002	
-7.95659092E+000	-1.17878101E+002	
-7.93587762E+000	-1.17883022E+002	
-7.91516431E+000	-1.17921376E+002	
-7.89445101E+000	-1.17917617E+002	
-7.87373770E+000	-1.17896770E+002	
-7.85302439E+000	-1.17894381E+002	
-7.83231109E+000	-1.17874320E+002	
-7.81159778E+000	-1.17929921E+002	
-7.79088448E+000	-1.17951778E+002	
-7.77017117E+000	-1.17969299E+002	
-7.74945787E+000	-1.17982192E+002	
-7.72874456E+000	-1.17993936E+002	
-7.70803126E+000	-1.17954722E+002	
-7.68731795E+000	-1.17987463E+002	
-7.66660465E+000	-1.17985137E+002	
-7.64589134E+000	-1.17989557E+002	
-7.62517804E+000	-1.17972999E+002	
-7.60446473E+000	-1.17914082E+002	
-7.58375143E+000	-1.17937850E+002	
-7.56303812E+000	-1.17972953E+002	
-7.54232482E+000	-1.18036151E+002	
-7.52161151E+000	-1.18023360E+002	
-7.50089820E+000	-1.18039823E+002	
-7.48018490E+000	-1.18019296E+002	
-7.45947159E+000	-1.18073062E+002	
-7.43875829E+000	-1.18009301E+002	
-7.41804498E+000	-1.17923421E+002	
-7.39733168E+000	-1.17977784E+002	
-7.37661837E+000	-1.17991002E+002	
-7.35590507E+000	-1.17993810E+002	
-7.33519176E+000	-1.18007348E+002	
-7.31447846E+000	-1.18020529E+002	
-7.29376515E+000	-1.17990368E+002	
-7.27305185E+000	-1.17958960E+002	
-7.25233854E+000	-1.17988700E+002	
-7.23162524E+000	-1.18008549E+002	
-7.21091193E+000	-1.18001784E+002	
-7.19019862E+000	-1.18001085E+002	
-7.16948532E+000	-1.18047253E+002	
-7.14877201E+000	-1.18113128E+002	
-7.12805871E+000	-1.18170262E+002	
-7.10734540E+000	-1.18236342E+002	
-7.08663210E+000	-1.18266904E+002	
-7.06591879E+000	-1.18240961E+002	
-7.04520549E+000	-1.18222676E+002	
-7.02449218E+000	-1.18197821E+002	
-7.00377888E+000	-1.18157002E+002	
-6.98306557E+000	-1.18193185E+002	
-6.96235227E+000	-1.18155049E+002	
-6.94163896E+000	-1.18177604E+002	
-6.92092566E+000	-1.18250832E+002	
-6.90021235E+000	-1.18235821E+002	
-6.87949904E+000	-1.18201566E+002	
-6.85878574E+000	-1.18187626E+002	
-6.83807243E+000	-1.18218392E+002	
-6.81735913E+000	-1.18240463E+002	
-6.79664582E+000	-1.18200249E+002	
-6.77593252E+000	-1.18242963E+002	
-6.75521921E+000	-1.18196797E+002	
-6.73450591E+000	-1.18182293E+002	
-6.71379260E+000	-1.18155050E+002	
-6.69307930E+000	-1.18155864E+002	
-6.67236599E+000	-1.18112855E+002	
-6.65165269E+000	-1.18090509E+002	
-6.63093938E+000	-1.18112623E+002	
-6.61022608E+000	-1.18136989E+002	
-6.58951277E+000	-1.18130736E+002	
-6.56879947E+000	-1.18126982E+002	
-6.54808616E+000	-1.18118578E+002	
-6.52737285E+000	-1.18099707E+002	
-6.50665955E+000	-1.18126205E+002	
-6.48594624E+000	-1.18172012E+002	
-6.46523294E+000	-1.18206725E+002	
-6.44451963E+000	-1.18142053E+002	
-6.42380633E+000	-1.18100376E+002	
-6.40309302E+000	-1.18104387E+002	
-6.38237972E+000	-1.18073540E+002	
-6.36166641E+000	-1.18069993E+002	
-6.34095311E+000	-1.18068888E+002	
-6.32023980E+000	-1.18049885E+002	
-6.29952650E+000	-1.18060214E+002	
-6.27881319E+000	-1.18038498E+002	
-6.25809989E+000	-1.18049195E+002	
-6.23738658E+000	-1.18039226E+002	
-6.21667327E+000	-1.18021599E+002	
-6.19595997E+000	-1.18027096E+002	
-6.17524666E+000	-1.18022648E+002	
-6.15453336E+000	-1.18025646E+002	
-6.13382005E+000	-1.17996649E+002	
-6.11310675E+000	-1.17995897E+002	
-6.09239344E+000	-1.17998115E+002	
-6.07168014E+000	-1.17944673E+002	
-6.05096683E+000	-1.18009204E+002	
-6.03025353E+000	-1.18019397E+002	
-6.00954022E+000	-1.18011079E+002	
-5.98882692E+000	-1.17961311E+002	
-5.96811361E+000	-1.17967518E+002	
-5.94740031E+000	-1.18009698E+002	
-5.92668700E+000	-1.18049136E+002	
-5.90597369E+000	-1.18062645E+002	
-5.88526039E+000	-1.18113863E+002	
-5.86454708E+000	-1.18139145E+002	
-5.84383378E+000	-1.18099826E+002	
-5.82312047E+000	-1.18125864E+002	
-5.80240717E+000	-1.18097711E+002	
-5.78169386E+000	-1.18107513E+002	
-5.76098056E+000	-1.18104365E+002	
-5.74026725E+000	-1.18105210E+002	
-5.71955395E+000	-1.18146316E+002	
-5.69884064E+000	-1.18146818E+002	
-5.67812734E+000	-1.18169760E+002	
-5.65741403E+000	-1.18166735E+002	
-5.63670073E+000	-1.18180870E+002	
-5.61598742E+000	-1.18153663E+002	
-5.59527412E+000	-1.18107269E+002	
-5.57456081E+000	-1.18176515E+002	
-5.55384750E+000	-1.18094758E+002	
-5.53313420E+000	-1.18029842E+002	
-5.51242089E+000	-1.18050737E+002	
-5.49170759E+000	-1.18044163E+002	
-5.47099428E+000	-1.18020591E+002	
-5.45028098E+000	-1.18081132E+002	
-5.42956767E+000	-1.18124491E+002	
-5.40885437E+000	-1.18106162E+002	
-5.38814106E+000	-1.18095971E+002	
-5.36742776E+000	-1.18077054E+002	
-5.34671445E+000	-1.18118722E+002	
-5.32600115E+000	-1.18116710E+002	
-5.30528784E+000	-1.18129245E+002	
-5.28457454E+000	-1.18098818E+002	
-5.26386123E+000	-1.18093812E+002	
-5.24314792E+000	-1.18036784E+002	
-5.22243462E+000	-1.18009913E+002	
-5.20172131E+000	-1.18016482E+002	
-5.18100801E+000	-1.17967225E+002	
-5.16029470E+000	-1.17950965E+002	
-5.13958140E+000	-1.17910214E+002	
-5.11886809E+000	-1.17887066E+002	
-5.09815479E+000	-1.17900362E+002	
-5.07744148E+000	-1.17857681E+002	
-5.05672818E+000	-1.17919319E+002	
-5.03601487E+000	-1.17933852E+002	
-5.01530157E+000	-1.17958321E+002	
-4.99458826E+000	-1.17967491E+002	
-4.97387496E+000	-1.17916024E+002	
-4.95316165E+000	-1.17909290E+002	
-4.93244834E+000	-1.17866313E+002	
-4.91173504E+000	-1.17852441E+002	
-4.89102173E+000	-1.17846786E+002	
-4.87030843E+000	-1.17875469E+002	
-4.84959512E+000	-1.17855966E+002	
-4.82888182E+000	-1.17811655E+002	
-4.80816851E+000	-1.17807629E+002	
-4.78745521E+000	-1.17826683E+002	
-4.76674190E+000	-1.17852502E+002	
-4.74602860E+000	-1.17876596E+002	
-4.72531529E+000	-1.17920792E+002	
-4.70460199E+000	-1.17907371E+002	
-4.68388868E+000	-1.17958041E+002	
-4.66317538E+000	-1.17951619E+002	
-4.64246207E+000	-1.17984077E+002	
-4.62174877E+000	-1.18025001E+002	
-4.60103546E+000	-1.18069738E+002	
-4.58032215E+000	-1.18094406E+002	
-4.55960885E+000	-1.18065063E+002	
-4.53889554E+000	-1.18095378E+002	
-4.51818224E+000	-1.18023078E+002	
-4.49746893E+000	-1.17979529E+002	
-4.47675563E+000	-1.18032188E+002	
-4.45604232E+000	-1.18018946E+002	
-4.43532902E+000	-1.18016823E+002	
-4.41461571E+000	-1.17996913E+002	
-4.39390241E+000	-1.18017930E+002	
-4.37318910E+000	-1.18029570E+002	
-4.35247580E+000	-1.18005183E+002	
-4.33176249E+000	-1.18000955E+002	
-4.31104919E+000	-1.17999430E+002	
-4.29033588E+000	-1.17994303E+002	
-4.26962257E+000	-1.17990782E+002	
-4.24890927E+000	-1.18033693E+002	
-4.22819596E+000	-1.18051858E+002	
-4.20748266E+000	-1.18099801E+002	
-4.18676935E+000	-1.18054712E+002	
-4.16605605E+000	-1.18072123E+002	
-4.14534274E+000	-1.18096179E+002	
-4.12462944E+000	-1.18062364E+002	
-4.10391613E+000	-1.18051149E+002	
-4.08320283E+000	-1.18038179E+002	
-4.06248952E+000	-1.18035425E+002	
-4.04177622E+000	-1.18001125E+002	
-4.02106291E+000	-1.18038727E+002	
-4.00034961E+000	-1.18044616E+002	
-3.97963630E+000	-1.18010360E+002	
-3.95892299E+000	-1.18020051E+002	
-3.93820969E+000	-1.17999019E+002	
-3.91749638E+000	-1.18026609E+002	
-3.89678308E+000	-1.17993304E+002	
-3.87606977E+000	-1.17918574E+002	
-3.85535647E+000	-1.17920426E+002	
-3.83464316E+000	-1.17919274E+002	
-3.81392986E+000	-1.17912095E+002	
-3.79321655E+000	-1.17941007E+002	
-3.77250325E+000	-1.17873724E+002	
-3.75178994E+000	-1.17872122E+002	
-3.73107664E+000	-1.17878978E+002	
-3.71036333E+000	-1.17814847E+002	
-3.68965003E+000	-1.17840084E+002	
-3.66893672E+000	-1.17883365E+002	
-3.64822342E+000	-1.17839671E+002	
-3.62751011E+000	-1.17848861E+002	
-3.60679680E+000	-1.17843387E+002	
-3.58608350E+000	-1.17845089E+002	
-3.56537019E+000	-1.17868972E+002	
-3.54465689E+000	-1.17880617E+002	
-3.52394358E+000	-1.17906704E+002	
-3.50323028E+000	-1.17947522E+002	
-3.48251697E+000	-1.17979782E+002	
-3.46180367E+000	-1.18007714E+002	
-3.44109036E+000	-1.18025771E+002	
-3.42037706E+000	-1.18057930E+002	
-3.39966375E+000	-1.18089466E+002	
-3.37895045E+000	-1.18139158E+002	
-3.35823714E+000	-1.18135592E+002	
-3.33752384E+000	-1.18143050E+002	
-3.31681053E+000	-1.18154696E+002	
-3.29609722E+000	-1.18123488E+002	
-3.27538392E+000	-1.18136160E+002	
-3.25467061E+000	-1.18146406E+002	
-3.23395731E+000	-1.18135525E+002	
-3.21324400E+000	-1.18156256E+002	
-3.19253070E+000	-1.18156077E+002	
-3.17181739E+000	-1.18131373E+002	
-3.15110409E+000	-1.18108390E+002	
-3.13039078E+000	-1.18098381E+002	
-3.10967748E+000	-1.18140156E+002	
-3.08896417E+000	-1.18127743E+002	
-3.06825087E+000	-1.18122850E+002	
-3.04753756E+000	-1.18144222E+002	
-3.02682426E+000	-1.18117254E+002	
-3.00611095E+000	-1.18044640E+002	
-2.98539764E+000	-1.18085042E+002	
-2.96468434E+000	-1.18043795E+002	
-2.94397103E+000	-1.18014774E+002	
-2.92325773E+000	-1.17973138E+002	
-2.90254442E+000	-1.17977461E+002	
-2.88183112E+000	-1.17988772E+002	
-2.86111781E+000	-1.18034099E+002	
-2.84040451E+000	-1.18074843E+002	
-2.81969120E+000	-1.18108876E+002	
-2.79897790E+000	-1.18174484E+002	
-2.77826459E+000	-1.18136484E+002	
-2.75755129E+000	-1.18112950E+002	
-2.73683798E+000	-1.18123692E+002	
-2.71612468E+000	-1.18082204E+002	
-2.69541137E+000	-1.18064202E+002	
-2.67469807E+000	-1.18119785E+002	
-2.65398476E+000	-1.18144973E+002	
-2.63327145E+000	-1.18141606E+002	
-2.61255815E+000	-1.18081960E+002	
-2.59184484E+000	-1.18082657E+002	
-2.57113154E+000	-1.18069603E+002	
-2.55041823E+000	-1.18060350E+002	
-2.52970493E+000	-1.18106780E+002	
-2.50899162E+000	-1.18175453E+002	
-2.48827832E+000	-1.18154017E+002	
-2.46756501E+000	-1.18156136E+002	
-2.44685171E+000	-1.18161244E+002	
-2.42613840E+000	-1.18185846E+002	
-2.40542510E+000	-1.18190036E+002	
-2.38471179E+000	-1.18165474E+002	
-2.36399849E+000	-1.18141069E+002	
-2.34328518E+000	-1.18091098E+002	
-2.32257187E+000	-1.18041555E+002	
-2.30185857E+000	-1.17968623E+002	
-2.28114526E+000	-1.17991995E+002	
-2.26043196E+000	-1.18065886E+002	
-2.23971865E+000	-1.18053149E+002	
-2.21900535E+000	-1.18100657E+002	
-2.19829204E+000	-1.18118750E+002	
-2.17757874E+000	-1.18078598E+002	
-2.15686543E+000	-1.18064676E+002	
-2.13615213E+000	-1.18116230E+002	
-2.11543882E+000	-1.18122260E+002	
-2.09472552E+000	-1.18135913E+002	
-2.07401221E+000	-1.18106071E+002	
-2.05329891E+000	-1.18053652E+002	
-2.03258560E+000	-1.18063575E+002	
-2.01187229E+000	-1.18058440E+002	
-1.99115899E+000	-1.18062188E+002	
-1.97044568E+000	-1.17988659E+002	
-1.94973238E+000	-1.18000253E+002	
-1.92901907E+000	-1.17977997E+002	
-1.90830577E+000	-1.17936226E+002	
-1.88759246E+000	-1.17938085E+002	
-1.86687916E+000	-1.17974195E+002	
-1.84616585E+000	-1.17946906E+002	
-1.82545255E+000	-1.18020801E+002	
-1.80473924E+000	-1.18027648E+002	
-1.78402594E+000	-1.18062399E+002	
-1.76331263E+000	-1.18060237E+002	
-1.74259933E+000	-1.18009285E+002	
-1.72188602E+000	-1.18009471E+002	
-1.70117272E+000	-1.18082685E+002	
-1.68045941E+000	-1.18109422E+002	
-1.65974610E+000	-1.18067563E+002	
-1.63903280E+000	-1.18034140E+002	
-1.61831949E+000	-1.18101519E+002	
-1.59760619E+000	-1.18115711E+002	
-1.57689288E+000	-1.18128577E+002	
-1.55617958E+000	-1.18188890E+002	
-1.53546627E+000	-1.18174467E+002	
-1.51475297E+000	-1.18179560E+002	
-1.49403966E+000	-1.18158289E+002	
-1.47332636E+000	-1.18215253E+002	
-1.45261305E+000	-1.18188854E+002	
-1.43189975E+000	-1.18194340E+002	
-1.41118644E+000	-1.18191760E+002	
-1.39047314E+000	-1.18217339E+002	
-1.36975983E+000	-1.18179071E+002	
-1.34904652E+000	-1.18181676E+002	
-1.32833322E+000	-1.18137796E+002	
-1.30761991E+000	-1.18091317E+002	
-1.28690661E+000	-1.18099551E+002	
-1.26619330E+000	-1.18089982E+002	
-1.24548000E+000	-1.18139876E+002	
-1.22476669E+000	-1.18161823E+002	
-1.20405339E+000	-1.18059185E+002	
-1.18334008E+000	-1.18050713E+002	
-1.16262678E+000	-1.18117817E+002	
-1.14191347E+000	-1.18145229E+002	
-1.12120017E+000	-1.18132038E+002	
-1.10048686E+000	-1.18100114E+002	
-1.07977356E+000	-1.18109455E+002	
-1.05906025E+000	-1.18149156E+002	
-1.03834694E+000	-1.18132692E+002	
-1.01763364E+000	-1.18073396E+002	
-9.96920334E-001	-1.17982904E+002	
-9.76207029E-001	-1.17942258E+002	
-9.55493724E-001	-1.17957616E+002	
-9.34780418E-001	-1.17973116E+002	
-9.14067113E-001	-1.18013384E+002	
-8.93353808E-001	-1.17993941E+002	
-8.72640502E-001	-1.17970736E+002	
-8.51927197E-001	-1.17996843E+002	
-8.31213892E-001	-1.18026920E+002	
-8.10500586E-001	-1.18091102E+002	
-7.89787281E-001	-1.18108758E+002	
-7.69073976E-001	-1.18120555E+002	
-7.48360671E-001	-1.18109135E+002	
-7.27647365E-001	-1.18105780E+002	
-7.06934060E-001	-1.18138171E+002	
-6.86220755E-001	-1.18160914E+002	
-6.65507449E-001	-1.18190050E+002	
-6.44794144E-001	-1.18186519E+002	
-6.24080839E-001	-1.18151490E+002	
-6.03367533E-001	-1.18155257E+002	
-5.82654228E-001	-1.18133364E+002	
-5.61940923E-001	-1.18075370E+002	
-5.41227617E-001	-1.18031193E+002	
-5.20514312E-001	-1.18054535E+002	
-4.99801007E-001	-1.18154393E+002	
-4.79087701E-001	-1.18230455E+002	
-4.58374396E-001	-1.18259534E+002	
-4.37661091E-001	-1.18219766E+002	
-4.16947785E-001	-1.18199361E+002	
-3.96234480E-001	-1.18204759E+002	
-3.75521175E-001	-1.18207336E+002	
-3.54807869E-001	-1.18211855E+002	
-3.34094564E-001	-1.18214242E+002	
-3.13381259E-001	-1.18226482E+002	
-2.92667954E-001	-1.18182227E+002	
-2.71954648E-001	-1.18140485E+002	
-2.51241343E-001	-8.60017101E+001	
-2.30528038E-001	-8.56610018E+001	
-2.09814732E-001	-8.56609639E+001	
-1.89101427E-001	-8.56609645E+001	
-1.68388122E-001	-8.56609583E+001	
-1.47674816E-001	-8.56609329E+001	
-1.26961511E-001	-8.56608634E+001	
-1.06248206E-001	-8.56608078E+001	
-8.55349003E-002	-8.56608249E+001	
-6.48215950E-002	-8.56608576E+001	
-4.41082897E-002	-8.56609231E+001	
-2.33949844E-002	-8.56609559E+001	
-2.68167905E-003	-8.56609796E+001	
1.80316263E-002	-8.56609755E+001	
3.87449316E-002	-8.56609891E+001	
5.94582369E-002	-8.56610378E+001	
8.01715422E-002	-8.56610643E+001	
1.00884848E-001	-8.56610817E+001	
1.21598153E-001	-8.56611301E+001	
1.42311458E-001	-8.56611450E+001	
1.63024763E-001	-8.56611596E+001	
1.83738069E-001	-8.56611494E+001	
2.04451374E-001	-8.56611544E+001	
2.25164679E-001	-8.56611628E+001	
2.45877985E-001	-9.21577375E+001	
2.66591290E-001	-1.18491807E+002	
2.87304595E-001	-1.18589395E+002	
3.08017901E-001	-1.18631836E+002	
3.28731206E-001	-1.18589128E+002	
3.49444511E-001	-1.18609835E+002	
3.70157817E-001	-1.18750927E+002	
3.90871122E-001	-1.18886575E+002	
4.11584427E-001	-1.18919460E+002	
4.32297733E-001	-1.18947835E+002	
4.53011038E-001	-1.18954625E+002	
4.73724343E-001	-1.18932121E+002	
4.94437649E-001	-1.18886975E+002	
5.15150954E-001	-1.18900033E+002	
5.35864259E-001	-1.18856547E+002	
5.56577565E-001	-1.18798283E+002	
5.77290870E-001	-1.18828237E+002	
5.98004175E-001	-1.18863729E+002	
6.18717481E-001	-1.18821046E+002	
6.39430786E-001	-1.18804257E+002	
6.60144091E-001	-1.18830877E+002	
6.80857396E-001	-1.18862948E+002	
7.01570702E-001	-1.18893986E+002	
7.22284007E-001	-1.18908576E+002	
7.42997312E-001	-1.18914439E+002	
7.63710618E-001	-1.18895595E+002	
7.84423923E-001	-1.18880576E+002	
8.05137228E-001	-1.18869748E+002	
8.25850534E-001	-1.18902971E+002	
8.46563839E-001	-1.18908469E+002	
8.67277144E-001	-1.18952747E+002	
8.87990450E-001	-1.18982463E+002	
9.08703755E-001	-1.18956326E+002	
9.29417060E-001	-1.18930803E+002	
9.50130366E-001	-1.18932611E+002	
9.70843671E-001	-1.18936897E+002	
9.91556976E-001	-1.19012231E+002	
1.01227028E+000	-1.19010479E+002	
1.03298359E+000	-1.19056321E+002	
1.05369689E+000	-1.19131879E+002	
1.07441020E+000	-1.19127657E+002	
1.09512350E+000	-1.19080254E+002	
1.11583681E+000	-1.19054447E+002	
1.13655011E+000	-1.19091419E+002	
1.15726342E+000	-1.19085473E+002	
1.17797672E+000	-1.19105629E+002	
1.19869003E+000	-1.19117547E+002	
1.21940333E+000	-1.19135737E+002	
1.24011664E+000	-1.19135683E+002	
1.26082995E+000	-1.19101625E+002	
1.28154325E+000	-1.19135688E+002	
1.30225656E+000	-1.19170746E+002	
1.32296986E+000	-1.19147113E+002	
1.34368317E+000	-1.19212598E+002	
1.36439647E+000	-1.19238651E+002	
1.38510978E+000	-1.19270614E+002	
1.40582308E+000	-1.19317344E+002	
1.42653639E+000	-1.19316702E+002	
1.44724969E+000	-1.19281128E+002	
1.46796300E+000	-1.19282144E+002	
1.48867630E+000	-1.19274161E+002	
1.50938961E+000	-1.19269472E+002	
1.53010291E+000	-1.19232905E+002	
1.55081622E+000	-1.19167285E+002	
1.57152953E+000	-1.19109679E+002	
1.59224283E+000	-1.19073134E+002	
1.61295614E+000	-1.19062510E+002	
1.63366944E+000	-1.19028742E+002	
1.65438275E+000	-1.18990714E+002	
1.67509605E+000	-1.18968077E+002	
1.69580936E+000	-1.18932586E+002	
1.71652266E+000	-1.18862973E+002	
1.73723597E+000	-1.18848099E+002	
1.75794927E+000	-1.18826449E+002	
1.77866258E+000	-1.18809954E+002	
1.79937588E+000	-1.18795199E+002	
1.82008919E+000	-1.18788902E+002	
1.84080249E+000	-1.18766502E+002	
