Time (ns)	Amplitude (dB)	
-1.00072081E+001	-1.20633808E+002	
-9.98649484E+000	-1.20302364E+002	
-9.96578154E+000	-1.19942968E+002	
-9.94506823E+000	-1.19677995E+002	
-9.92435493E+000	-1.19448012E+002	
-9.90364162E+000	-1.19202420E+002	
-9.88292832E+000	-1.18990795E+002	
-9.86221501E+000	-1.18784957E+002	
-9.84150171E+000	-1.18585110E+002	
-9.82078840E+000	-1.18402153E+002	
-9.80007509E+000	-1.18200944E+002	
-9.77936179E+000	-1.18003210E+002	
-9.75864848E+000	-1.17948062E+002	
-9.73793518E+000	-1.17970333E+002	
-9.71722187E+000	-1.17967115E+002	
-9.69650857E+000	-1.17967943E+002	
-9.67579526E+000	-1.18030320E+002	
-9.65508196E+000	-1.18013454E+002	
-9.63436865E+000	-1.17958418E+002	
-9.61365535E+000	-1.17961494E+002	
-9.59294204E+000	-1.17987103E+002	
-9.57222874E+000	-1.18008211E+002	
-9.55151543E+000	-1.18021892E+002	
-9.53080213E+000	-1.18005123E+002	
-9.51008882E+000	-1.18036021E+002	
-9.48937552E+000	-1.18062584E+002	
-9.46866221E+000	-1.18066312E+002	
-9.44794890E+000	-1.18045359E+002	
-9.42723560E+000	-1.17999437E+002	
-9.40652229E+000	-1.18000257E+002	
-9.38580899E+000	-1.17976089E+002	
-9.36509568E+000	-1.17961717E+002	
-9.34438238E+000	-1.17927089E+002	
-9.32366907E+000	-1.17901899E+002	
-9.30295577E+000	-1.17901276E+002	
-9.28224246E+000	-1.17918735E+002	
-9.26152916E+000	-1.17869793E+002	
-9.24081585E+000	-1.17804530E+002	
-9.22010255E+000	-1.17789439E+002	
-9.19938924E+000	-1.17825086E+002	
-9.17867594E+000	-1.17808390E+002	
-9.15796263E+000	-1.17806758E+002	
-9.13724932E+000	-1.17869037E+002	
-9.11653602E+000	-1.17876449E+002	
-9.09582271E+000	-1.17832966E+002	
-9.07510941E+000	-1.17844694E+002	
-9.05439610E+000	-1.17853121E+002	
-9.03368280E+000	-1.17738620E+002	
-9.01296949E+000	-1.17727365E+002	
-8.99225619E+000	-1.17727881E+002	
-8.97154288E+000	-1.17775539E+002	
-8.95082958E+000	-1.17790474E+002	
-8.93011627E+000	-1.17816898E+002	
-8.90940297E+000	-1.17841087E+002	
-8.88868966E+000	-1.17865141E+002	
-8.86797636E+000	-1.17857387E+002	
-8.84726305E+000	-1.17874724E+002	
-8.82654974E+000	-1.17860343E+002	
-8.80583644E+000	-1.17875060E+002	
-8.78512313E+000	-1.17877217E+002	
-8.76440983E+000	-1.17896194E+002	
-8.74369652E+000	-1.17955802E+002	
-8.72298322E+000	-1.17971739E+002	
-8.70226991E+000	-1.17906431E+002	
-8.68155661E+000	-1.17873674E+002	
-8.66084330E+000	-1.17909272E+002	
-8.64013000E+000	-1.17881623E+002	
-8.61941669E+000	-1.17838844E+002	
-8.59870339E+000	-1.17882292E+002	
-8.57799008E+000	-1.17883754E+002	
-8.55727678E+000	-1.17839932E+002	
-8.53656347E+000	-1.17949629E+002	
-8.51585017E+000	-1.17972646E+002	
-8.49513686E+000	-1.17979247E+002	
-8.47442355E+000	-1.17968380E+002	
-8.45371025E+000	-1.17998008E+002	
-8.43299694E+000	-1.18035928E+002	
-8.41228364E+000	-1.17993372E+002	
-8.39157033E+000	-1.17965741E+002	
-8.37085703E+000	-1.18011592E+002	
-8.35014372E+000	-1.18024154E+002	
-8.32943042E+000	-1.18044788E+002	
-8.30871711E+000	-1.17998936E+002	
-8.28800381E+000	-1.18035196E+002	
-8.26729050E+000	-1.18017112E+002	
-8.24657720E+000	-1.18011123E+002	
-8.22586389E+000	-1.17993178E+002	
-8.20515059E+000	-1.18036395E+002	
-8.18443728E+000	-1.18034883E+002	
-8.16372397E+000	-1.18023580E+002	
-8.14301067E+000	-1.17972270E+002	
-8.12229736E+000	-1.17987159E+002	
-8.10158406E+000	-1.17976415E+002	
-8.08087075E+000	-1.17969076E+002	
-8.06015745E+000	-1.17947197E+002	
-8.03944414E+000	-1.17892805E+002	
-8.01873084E+000	-1.17908901E+002	
-7.99801753E+000	-1.17889731E+002	
-7.97730423E+000	-1.17881446E+002	
-7.95659092E+000	-1.17843492E+002	
-7.93587762E+000	-1.17851520E+002	
-7.91516431E+000	-1.17888803E+002	
-7.89445101E+000	-1.17886001E+002	
-7.87373770E+000	-1.17865349E+002	
-7.85302439E+000	-1.17859624E+002	
-7.83231109E+000	-1.17843187E+002	
-7.81159778E+000	-1.17899863E+002	
-7.79088448E+000	-1.17926346E+002	
-7.77017117E+000	-1.17946490E+002	
-7.74945787E+000	-1.17962917E+002	
-7.72874456E+000	-1.17974510E+002	
-7.70803126E+000	-1.17940256E+002	
-7.68731795E+000	-1.17974011E+002	
-7.66660465E+000	-1.17962350E+002	
-7.64589134E+000	-1.17959359E+002	
-7.62517804E+000	-1.17941640E+002	
-7.60446473E+000	-1.17882644E+002	
-7.58375143E+000	-1.17897930E+002	
-7.56303812E+000	-1.17927547E+002	
-7.54232482E+000	-1.18001067E+002	
-7.52161151E+000	-1.17990208E+002	
-7.50089820E+000	-1.18009146E+002	
-7.48018490E+000	-1.17980848E+002	
-7.45947159E+000	-1.18028265E+002	
-7.43875829E+000	-1.17967134E+002	
-7.41804498E+000	-1.17881120E+002	
-7.39733168E+000	-1.17931794E+002	
-7.37661837E+000	-1.17945383E+002	
-7.35590507E+000	-1.17954781E+002	
-7.33519176E+000	-1.17973223E+002	
-7.31447846E+000	-1.17987056E+002	
-7.29376515E+000	-1.17958372E+002	
-7.27305185E+000	-1.17924373E+002	
-7.25233854E+000	-1.17951978E+002	
-7.23162524E+000	-1.17965485E+002	
-7.21091193E+000	-1.17961791E+002	
-7.19019862E+000	-1.17960074E+002	
-7.16948532E+000	-1.18008093E+002	
-7.14877201E+000	-1.18080545E+002	
-7.12805871E+000	-1.18138965E+002	
-7.10734540E+000	-1.18215457E+002	
-7.08663210E+000	-1.18250475E+002	
-7.06591879E+000	-1.18229322E+002	
-7.04520549E+000	-1.18209946E+002	
-7.02449218E+000	-1.18183393E+002	
-7.00377888E+000	-1.18152153E+002	
-6.98306557E+000	-1.18198542E+002	
-6.96235227E+000	-1.18159914E+002	
-6.94163896E+000	-1.18179461E+002	
-6.92092566E+000	-1.18251608E+002	
-6.90021235E+000	-1.18241374E+002	
-6.87949904E+000	-1.18203085E+002	
-6.85878574E+000	-1.18182522E+002	
-6.83807243E+000	-1.18208105E+002	
-6.81735913E+000	-1.18226889E+002	
-6.79664582E+000	-1.18185084E+002	
-6.77593252E+000	-1.18228065E+002	
-6.75521921E+000	-1.18183755E+002	
-6.73450591E+000	-1.18172568E+002	
-6.71379260E+000	-1.18141751E+002	
-6.69307930E+000	-1.18134668E+002	
-6.67236599E+000	-1.18090998E+002	
-6.65165269E+000	-1.18068005E+002	
-6.63093938E+000	-1.18089497E+002	
-6.61022608E+000	-1.18107137E+002	
-6.58951277E+000	-1.18100324E+002	
-6.56879947E+000	-1.18089098E+002	
-6.54808616E+000	-1.18073744E+002	
-6.52737285E+000	-1.18043467E+002	
-6.50665955E+000	-1.18062837E+002	
-6.48594624E+000	-1.18101646E+002	
-6.46523294E+000	-1.18137354E+002	
-6.44451963E+000	-1.18072935E+002	
-6.42380633E+000	-1.18029138E+002	
-6.40309302E+000	-1.18033689E+002	
-6.38237972E+000	-1.18014592E+002	
-6.36166641E+000	-1.18013808E+002	
-6.34095311E+000	-1.18014512E+002	
-6.32023980E+000	-1.18004646E+002	
-6.29952650E+000	-1.18011375E+002	
-6.27881319E+000	-1.17986574E+002	
-6.25809989E+000	-1.17997892E+002	
-6.23738658E+000	-1.17989430E+002	
-6.21667327E+000	-1.17968513E+002	
-6.19595997E+000	-1.17987922E+002	
-6.17524666E+000	-1.17986903E+002	
-6.15453336E+000	-1.17993845E+002	
-6.13382005E+000	-1.17971198E+002	
-6.11310675E+000	-1.17977322E+002	
-6.09239344E+000	-1.17971121E+002	
-6.07168014E+000	-1.17923766E+002	
-6.05096683E+000	-1.17988416E+002	
-6.03025353E+000	-1.18009216E+002	
-6.00954022E+000	-1.18001312E+002	
-5.98882692E+000	-1.17951814E+002	
-5.96811361E+000	-1.17960645E+002	
-5.94740031E+000	-1.18007616E+002	
-5.92668700E+000	-1.18056807E+002	
-5.90597369E+000	-1.18074347E+002	
-5.88526039E+000	-1.18115386E+002	
-5.86454708E+000	-1.18147085E+002	
-5.84383378E+000	-1.18119662E+002	
-5.82312047E+000	-1.18146931E+002	
-5.80240717E+000	-1.18124891E+002	
-5.78169386E+000	-1.18140519E+002	
-5.76098056E+000	-1.18136912E+002	
-5.74026725E+000	-1.18137107E+002	
-5.71955395E+000	-1.18189365E+002	
-5.69884064E+000	-1.18187868E+002	
-5.67812734E+000	-1.18215520E+002	
-5.65741403E+000	-1.18207439E+002	
-5.63670073E+000	-1.18220107E+002	
-5.61598742E+000	-1.18186455E+002	
-5.59527412E+000	-1.18151122E+002	
-5.57456081E+000	-1.18225533E+002	
-5.55384750E+000	-1.18140711E+002	
-5.53313420E+000	-1.18072760E+002	
-5.51242089E+000	-1.18087960E+002	
-5.49170759E+000	-1.18087733E+002	
-5.47099428E+000	-1.18064040E+002	
-5.45028098E+000	-1.18124146E+002	
-5.42956767E+000	-1.18158423E+002	
-5.40885437E+000	-1.18140385E+002	
-5.38814106E+000	-1.18129568E+002	
-5.36742776E+000	-1.18103334E+002	
-5.34671445E+000	-1.18128087E+002	
-5.32600115E+000	-1.18107145E+002	
-5.30528784E+000	-1.18112271E+002	
-5.28457454E+000	-1.18078785E+002	
-5.26386123E+000	-1.18073410E+002	
-5.24314792E+000	-1.18024101E+002	
-5.22243462E+000	-1.17989837E+002	
-5.20172131E+000	-1.17996006E+002	
-5.18100801E+000	-1.17936344E+002	
-5.16029470E+000	-1.17930664E+002	
-5.13958140E+000	-1.17884752E+002	
-5.11886809E+000	-1.17864025E+002	
-5.09815479E+000	-1.17874188E+002	
-5.07744148E+000	-1.17829187E+002	
-5.05672818E+000	-1.17896297E+002	
-5.03601487E+000	-1.17914210E+002	
-5.01530157E+000	-1.17947203E+002	
-4.99458826E+000	-1.17955812E+002	
-4.97387496E+000	-1.17902681E+002	
-4.95316165E+000	-1.17892185E+002	
-4.93244834E+000	-1.17853952E+002	
-4.91173504E+000	-1.17832910E+002	
-4.89102173E+000	-1.17828191E+002	
-4.87030843E+000	-1.17865398E+002	
-4.84959512E+000	-1.17847950E+002	
-4.82888182E+000	-1.17808559E+002	
-4.80816851E+000	-1.17801866E+002	
-4.78745521E+000	-1.17826336E+002	
-4.76674190E+000	-1.17859500E+002	
-4.74602860E+000	-1.17874426E+002	
-4.72531529E+000	-1.17925059E+002	
-4.70460199E+000	-1.17908312E+002	
-4.68388868E+000	-1.17962692E+002	
-4.66317538E+000	-1.17961100E+002	
-4.64246207E+000	-1.17992250E+002	
-4.62174877E+000	-1.18034597E+002	
-4.60103546E+000	-1.18074830E+002	
-4.58032215E+000	-1.18097445E+002	
-4.55960885E+000	-1.18068878E+002	
-4.53889554E+000	-1.18095625E+002	
-4.51818224E+000	-1.18018996E+002	
-4.49746893E+000	-1.17969608E+002	
-4.47675563E+000	-1.18020847E+002	
-4.45604232E+000	-1.18013244E+002	
-4.43532902E+000	-1.18010765E+002	
-4.41461571E+000	-1.18004655E+002	
-4.39390241E+000	-1.18028528E+002	
-4.37318910E+000	-1.18033216E+002	
-4.35247580E+000	-1.18009888E+002	
-4.33176249E+000	-1.18011469E+002	
-4.31104919E+000	-1.18008342E+002	
-4.29033588E+000	-1.17999884E+002	
-4.26962257E+000	-1.17987669E+002	
-4.24890927E+000	-1.18031865E+002	
-4.22819596E+000	-1.18047153E+002	
-4.20748266E+000	-1.18092472E+002	
-4.18676935E+000	-1.18044515E+002	
-4.16605605E+000	-1.18049203E+002	
-4.14534274E+000	-1.18071491E+002	
-4.12462944E+000	-1.18038820E+002	
-4.10391613E+000	-1.18029037E+002	
-4.08320283E+000	-1.18017512E+002	
-4.06248952E+000	-1.18009454E+002	
-4.04177622E+000	-1.17979128E+002	
-4.02106291E+000	-1.18022182E+002	
-4.00034961E+000	-1.18025429E+002	
-3.97963630E+000	-1.17986880E+002	
-3.95892299E+000	-1.17996511E+002	
-3.93820969E+000	-1.17979761E+002	
-3.91749638E+000	-1.17997797E+002	
-3.89678308E+000	-1.17961302E+002	
-3.87606977E+000	-1.17885239E+002	
-3.85535647E+000	-1.17890895E+002	
-3.83464316E+000	-1.17883727E+002	
-3.81392986E+000	-1.17878851E+002	
-3.79321655E+000	-1.17905036E+002	
-3.77250325E+000	-1.17839132E+002	
-3.75178994E+000	-1.17840506E+002	
-3.73107664E+000	-1.17847966E+002	
-3.71036333E+000	-1.17784253E+002	
-3.68965003E+000	-1.17811704E+002	
-3.66893672E+000	-1.17858945E+002	
-3.64822342E+000	-1.17818467E+002	
-3.62751011E+000	-1.17828416E+002	
-3.60679680E+000	-1.17824986E+002	
-3.58608350E+000	-1.17826484E+002	
-3.56537019E+000	-1.17856152E+002	
-3.54465689E+000	-1.17871191E+002	
-3.52394358E+000	-1.17899624E+002	
-3.50323028E+000	-1.17947274E+002	
-3.48251697E+000	-1.17983426E+002	
-3.46180367E+000	-1.18006724E+002	
-3.44109036E+000	-1.18015034E+002	
-3.42037706E+000	-1.18049018E+002	
-3.39966375E+000	-1.18080942E+002	
-3.37895045E+000	-1.18123141E+002	
-3.35823714E+000	-1.18112340E+002	
-3.33752384E+000	-1.18122629E+002	
-3.31681053E+000	-1.18137867E+002	
-3.29609722E+000	-1.18111435E+002	
-3.27538392E+000	-1.18127039E+002	
-3.25467061E+000	-1.18130581E+002	
-3.23395731E+000	-1.18112036E+002	
-3.21324400E+000	-1.18132796E+002	
-3.19253070E+000	-1.18128456E+002	
-3.17181739E+000	-1.18105911E+002	
-3.15110409E+000	-1.18084531E+002	
-3.13039078E+000	-1.18075825E+002	
-3.10967748E+000	-1.18116340E+002	
-3.08896417E+000	-1.18098892E+002	
-3.06825087E+000	-1.18088517E+002	
-3.04753756E+000	-1.18099103E+002	
-3.02682426E+000	-1.18063013E+002	
-3.00611095E+000	-1.17990674E+002	
-2.98539764E+000	-1.18025484E+002	
-2.96468434E+000	-1.17989893E+002	
-2.94397103E+000	-1.17962638E+002	
-2.92325773E+000	-1.17917807E+002	
-2.90254442E+000	-1.17914467E+002	
-2.88183112E+000	-1.17929951E+002	
-2.86111781E+000	-1.17978558E+002	
-2.84040451E+000	-1.18024025E+002	
-2.81969120E+000	-1.18058125E+002	
-2.79897790E+000	-1.18124123E+002	
-2.77826459E+000	-1.18085705E+002	
-2.75755129E+000	-1.18061444E+002	
-2.73683798E+000	-1.18075192E+002	
-2.71612468E+000	-1.18027960E+002	
-2.69541137E+000	-1.18013907E+002	
-2.67469807E+000	-1.18072969E+002	
-2.65398476E+000	-1.18097912E+002	
-2.63327145E+000	-1.18092764E+002	
-2.61255815E+000	-1.18032411E+002	
-2.59184484E+000	-1.18031576E+002	
-2.57113154E+000	-1.18019846E+002	
-2.55041823E+000	-1.18020932E+002	
-2.52970493E+000	-1.18073354E+002	
-2.50899162E+000	-1.18141001E+002	
-2.48827832E+000	-1.18118370E+002	
-2.46756501E+000	-1.18116652E+002	
-2.44685171E+000	-1.18122726E+002	
-2.42613840E+000	-1.18150212E+002	
-2.40542510E+000	-1.18165233E+002	
-2.38471179E+000	-1.18145644E+002	
-2.36399849E+000	-1.18122824E+002	
-2.34328518E+000	-1.18070828E+002	
-2.32257187E+000	-1.18016289E+002	
-2.30185857E+000	-1.17942266E+002	
-2.28114526E+000	-1.17967933E+002	
-2.26043196E+000	-1.18046377E+002	
-2.23971865E+000	-1.18037076E+002	
-2.21900535E+000	-1.18092684E+002	
-2.19829204E+000	-1.18110987E+002	
-2.17757874E+000	-1.18070748E+002	
-2.15686543E+000	-1.18052798E+002	
-2.13615213E+000	-1.18102992E+002	
-2.11543882E+000	-1.18112277E+002	
-2.09472552E+000	-1.18128230E+002	
-2.07401221E+000	-1.18104293E+002	
-2.05329891E+000	-1.18055323E+002	
-2.03258560E+000	-1.18067733E+002	
-2.01187229E+000	-1.18064174E+002	
-1.99115899E+000	-1.18074242E+002	
-1.97044568E+000	-1.18007240E+002	
-1.94973238E+000	-1.18019926E+002	
-1.92901907E+000	-1.18001392E+002	
-1.90830577E+000	-1.17953669E+002	
-1.88759246E+000	-1.17953574E+002	
-1.86687916E+000	-1.17992089E+002	
-1.84616585E+000	-1.17965569E+002	
-1.82545255E+000	-1.18042257E+002	
-1.80473924E+000	-1.18053114E+002	
-1.78402594E+000	-1.18085552E+002	
-1.76331263E+000	-1.18083788E+002	
-1.74259933E+000	-1.18033719E+002	
-1.72188602E+000	-1.18033788E+002	
-1.70117272E+000	-1.18109965E+002	
-1.68045941E+000	-1.18134621E+002	
-1.65974610E+000	-1.18096969E+002	
-1.63903280E+000	-1.18060475E+002	
-1.61831949E+000	-1.18121796E+002	
-1.59760619E+000	-1.18137043E+002	
-1.57689288E+000	-1.18145081E+002	
-1.55617958E+000	-1.18196701E+002	
-1.53546627E+000	-1.18177415E+002	
-1.51475297E+000	-1.18184322E+002	
-1.49403966E+000	-1.18158031E+002	
-1.47332636E+000	-1.18209933E+002	
-1.45261305E+000	-1.18180361E+002	
-1.43189975E+000	-1.18179740E+002	
-1.41118644E+000	-1.18172690E+002	
-1.39047314E+000	-1.18195067E+002	
-1.36975983E+000	-1.18153099E+002	
-1.34904652E+000	-1.18149535E+002	
-1.32833322E+000	-1.18103716E+002	
-1.30761991E+000	-1.18051076E+002	
-1.28690661E+000	-1.18058636E+002	
-1.26619330E+000	-1.18047291E+002	
-1.24548000E+000	-1.18098522E+002	
-1.22476669E+000	-1.18116135E+002	
-1.20405339E+000	-1.18013527E+002	
-1.18334008E+000	-1.18004038E+002	
-1.16262678E+000	-1.18067907E+002	
-1.14191347E+000	-1.18092203E+002	
-1.12120017E+000	-1.18084058E+002	
-1.10048686E+000	-1.18057277E+002	
-1.07977356E+000	-1.18067862E+002	
-1.05906025E+000	-1.18110242E+002	
-1.03834694E+000	-1.18093237E+002	
-1.01763364E+000	-1.18025432E+002	
-9.96920334E-001	-1.17939313E+002	
-9.76207029E-001	-1.17900824E+002	
-9.55493724E-001	-1.17918673E+002	
-9.34780418E-001	-1.17935471E+002	
-9.14067113E-001	-1.17976485E+002	
-8.93353808E-001	-1.17960737E+002	
-8.72640502E-001	-1.17938748E+002	
-8.51927197E-001	-1.17971566E+002	
-8.31213892E-001	-1.17999906E+002	
-8.10500586E-001	-1.18066457E+002	
-7.89787281E-001	-1.18090351E+002	
-7.69073976E-001	-1.18098682E+002	
-7.48360671E-001	-1.18086208E+002	
-7.27647365E-001	-1.18082168E+002	
-7.06934060E-001	-1.18109976E+002	
-6.86220755E-001	-1.18131843E+002	
-6.65507449E-001	-1.18157740E+002	
-6.44794144E-001	-1.18153720E+002	
-6.24080839E-001	-1.18116582E+002	
-6.03367533E-001	-1.18118322E+002	
-5.82654228E-001	-1.18093966E+002	
-5.61940923E-001	-1.18041906E+002	
-5.41227617E-001	-1.18000184E+002	
-5.20514312E-001	-1.18032306E+002	
-4.99801007E-001	-1.18133886E+002	
-4.79087701E-001	-1.18207380E+002	
-4.58374396E-001	-1.18236804E+002	
-4.37661091E-001	-1.18200577E+002	
-4.16947785E-001	-1.18182667E+002	
-3.96234480E-001	-1.18186717E+002	
-3.75521175E-001	-1.18190062E+002	
-3.54807869E-001	-1.18202058E+002	
-3.34094564E-001	-1.18210309E+002	
-3.13381259E-001	-1.18225502E+002	
-2.92667954E-001	-1.18177458E+002	
-2.71954648E-001	-1.18031368E+002	
-2.51241343E-001	-8.60802899E+001	
-2.30528038E-001	-8.57455636E+001	
-2.09814732E-001	-8.57455322E+001	
-1.89101427E-001	-8.57455301E+001	
-1.68388122E-001	-8.57455250E+001	
-1.47674816E-001	-8.57455045E+001	
-1.26961511E-001	-8.57454403E+001	
-1.06248206E-001	-8.57453835E+001	
-8.55349003E-002	-8.57453935E+001	
-6.48215950E-002	-8.57454308E+001	
-4.41082897E-002	-8.57454953E+001	
-2.33949844E-002	-8.57455243E+001	
-2.68167905E-003	-8.57455414E+001	
1.80316263E-002	-8.57455391E+001	
3.87449316E-002	-8.57455558E+001	
5.94582369E-002	-8.57456040E+001	
8.01715422E-002	-8.57456312E+001	
1.00884848E-001	-8.57456563E+001	
1.21598153E-001	-8.57457055E+001	
1.42311458E-001	-8.57457175E+001	
1.63024763E-001	-8.57457296E+001	
1.83738069E-001	-8.57457187E+001	
2.04451374E-001	-8.57457234E+001	
2.25164679E-001	-8.57457784E+001	
2.45877985E-001	-9.22670540E+001	
2.66591290E-001	-1.18491198E+002	
2.87304595E-001	-1.18603354E+002	
3.08017901E-001	-1.18641414E+002	
3.28731206E-001	-1.18596317E+002	
3.49444511E-001	-1.18613591E+002	
3.70157817E-001	-1.18742448E+002	
3.90871122E-001	-1.18867077E+002	
4.11584427E-001	-1.18921403E+002	
4.32297733E-001	-1.18936638E+002	
4.53011038E-001	-1.18939777E+002	
4.73724343E-001	-1.18918598E+002	
4.94437649E-001	-1.18888658E+002	
5.15150954E-001	-1.18905654E+002	
5.35864259E-001	-1.18861719E+002	
5.56577565E-001	-1.18808568E+002	
5.77290870E-001	-1.18838668E+002	
5.98004175E-001	-1.18867762E+002	
6.18717481E-001	-1.18825728E+002	
6.39430786E-001	-1.18796103E+002	
6.60144091E-001	-1.18820914E+002	
6.80857396E-001	-1.18844509E+002	
7.01570702E-001	-1.18878504E+002	
7.22284007E-001	-1.18892074E+002	
7.42997312E-001	-1.18885804E+002	
7.63710618E-001	-1.18857042E+002	
7.84423923E-001	-1.18844066E+002	
8.05137228E-001	-1.18843490E+002	
8.25850534E-001	-1.18883634E+002	
8.46563839E-001	-1.18886425E+002	
8.67277144E-001	-1.18924655E+002	
8.87990450E-001	-1.18955388E+002	
9.08703755E-001	-1.18928808E+002	
9.29417060E-001	-1.18902598E+002	
9.50130366E-001	-1.18911492E+002	
9.70843671E-001	-1.18915723E+002	
9.91556976E-001	-1.18982057E+002	
1.01227028E+000	-1.18976303E+002	
1.03298359E+000	-1.19013119E+002	
1.05369689E+000	-1.19081766E+002	
1.07441020E+000	-1.19074968E+002	
1.09512350E+000	-1.19021435E+002	
1.11583681E+000	-1.18988970E+002	
1.13655011E+000	-1.19033332E+002	
1.15726342E+000	-1.19025092E+002	
1.17797672E+000	-1.19046180E+002	
1.19869003E+000	-1.19055797E+002	
1.21940333E+000	-1.19071655E+002	
1.24011664E+000	-1.19078299E+002	
1.26082995E+000	-1.19046191E+002	
1.28154325E+000	-1.19074158E+002	
1.30225656E+000	-1.19101658E+002	
1.32296986E+000	-1.19082321E+002	
1.34368317E+000	-1.19149771E+002	
1.36439647E+000	-1.19177730E+002	
1.38510978E+000	-1.19209337E+002	
1.40582308E+000	-1.19253969E+002	
1.42653639E+000	-1.19251441E+002	
1.44724969E+000	-1.19210080E+002	
1.46796300E+000	-1.19216797E+002	
1.48867630E+000	-1.19211314E+002	
1.50938961E+000	-1.19210386E+002	
1.53010291E+000	-1.19184607E+002	
1.55081622E+000	-1.19123225E+002	
1.57152953E+000	-1.19061652E+002	
1.59224283E+000	-1.19015107E+002	
1.61295614E+000	-1.19004939E+002	
1.63366944E+000	-1.18970213E+002	
1.65438275E+000	-1.18938287E+002	
1.67509605E+000	-1.18919022E+002	
1.69580936E+000	-1.18888483E+002	
1.71652266E+000	-1.18820343E+002	
1.73723597E+000	-1.18806544E+002	
1.75794927E+000	-1.18788517E+002	
1.77866258E+000	-1.18768677E+002	
1.79937588E+000	-1.18753356E+002	
1.82008919E+000	-1.18742853E+002	
1.84080249E+000	-1.18716483E+002	
