Time (ns)	Amplitude (dB)	
-1.00072081E+001	-1.20601563E+002	
-9.98649484E+000	-1.20268279E+002	
-9.96578154E+000	-1.19915880E+002	
-9.94506823E+000	-1.19656936E+002	
-9.92435493E+000	-1.19428872E+002	
-9.90364162E+000	-1.19184730E+002	
-9.88292832E+000	-1.18970525E+002	
-9.86221501E+000	-1.18759621E+002	
-9.84150171E+000	-1.18556261E+002	
-9.82078840E+000	-1.18374661E+002	
-9.80007509E+000	-1.18173590E+002	
-9.77936179E+000	-1.17974919E+002	
-9.75864848E+000	-1.17920189E+002	
-9.73793518E+000	-1.17940125E+002	
-9.71722187E+000	-1.17939992E+002	
-9.69650857E+000	-1.17941254E+002	
-9.67579526E+000	-1.17999208E+002	
-9.65508196E+000	-1.17982409E+002	
-9.63436865E+000	-1.17931389E+002	
-9.61365535E+000	-1.17935509E+002	
-9.59294204E+000	-1.17964038E+002	
-9.57222874E+000	-1.17982868E+002	
-9.55151543E+000	-1.17997913E+002	
-9.53080213E+000	-1.17989523E+002	
-9.51008882E+000	-1.18020225E+002	
-9.48937552E+000	-1.18048842E+002	
-9.46866221E+000	-1.18044147E+002	
-9.44794890E+000	-1.18013743E+002	
-9.42723560E+000	-1.17964499E+002	
-9.40652229E+000	-1.17963450E+002	
-9.38580899E+000	-1.17939136E+002	
-9.36509568E+000	-1.17928122E+002	
-9.34438238E+000	-1.17896132E+002	
-9.32366907E+000	-1.17866457E+002	
-9.30295577E+000	-1.17866009E+002	
-9.28224246E+000	-1.17884931E+002	
-9.26152916E+000	-1.17837670E+002	
-9.24081585E+000	-1.17777004E+002	
-9.22010255E+000	-1.17764145E+002	
-9.19938924E+000	-1.17800550E+002	
-9.17867594E+000	-1.17783967E+002	
-9.15796263E+000	-1.17789259E+002	
-9.13724932E+000	-1.17853128E+002	
-9.11653602E+000	-1.17858601E+002	
-9.09582271E+000	-1.17810904E+002	
-9.07510941E+000	-1.17820703E+002	
-9.05439610E+000	-1.17822487E+002	
-9.03368280E+000	-1.17700387E+002	
-9.01296949E+000	-1.17686329E+002	
-8.99225619E+000	-1.17687370E+002	
-8.97154288E+000	-1.17739685E+002	
-8.95082958E+000	-1.17757792E+002	
-8.93011627E+000	-1.17784743E+002	
-8.90940297E+000	-1.17808495E+002	
-8.88868966E+000	-1.17834413E+002	
-8.86797636E+000	-1.17829956E+002	
-8.84726305E+000	-1.17843646E+002	
-8.82654974E+000	-1.17834323E+002	
-8.80583644E+000	-1.17847159E+002	
-8.78512313E+000	-1.17849837E+002	
-8.76440983E+000	-1.17869056E+002	
-8.74369652E+000	-1.17931085E+002	
-8.72298322E+000	-1.17948529E+002	
-8.70226991E+000	-1.17880055E+002	
-8.68155661E+000	-1.17851048E+002	
-8.66084330E+000	-1.17884323E+002	
-8.64013000E+000	-1.17854602E+002	
-8.61941669E+000	-1.17818326E+002	
-8.59870339E+000	-1.17860364E+002	
-8.57799008E+000	-1.17856201E+002	
-8.55727678E+000	-1.17813974E+002	
-8.53656347E+000	-1.17930256E+002	
-8.51585017E+000	-1.17955890E+002	
-8.49513686E+000	-1.17960756E+002	
-8.47442355E+000	-1.17948701E+002	
-8.45371025E+000	-1.17972897E+002	
-8.43299694E+000	-1.18015404E+002	
-8.41228364E+000	-1.17974064E+002	
-8.39157033E+000	-1.17944249E+002	
-8.37085703E+000	-1.17987859E+002	
-8.35014372E+000	-1.18007669E+002	
-8.32943042E+000	-1.18024282E+002	
-8.30871711E+000	-1.17979534E+002	
-8.28800381E+000	-1.18013257E+002	
-8.26729050E+000	-1.17988688E+002	
-8.24657720E+000	-1.17976592E+002	
-8.22586389E+000	-1.17954058E+002	
-8.20515059E+000	-1.18000875E+002	
-8.18443728E+000	-1.17993296E+002	
-8.16372397E+000	-1.17974503E+002	
-8.14301067E+000	-1.17927132E+002	
-8.12229736E+000	-1.17937784E+002	
-8.10158406E+000	-1.17928330E+002	
-8.08087075E+000	-1.17925827E+002	
-8.06015745E+000	-1.17911404E+002	
-8.03944414E+000	-1.17851988E+002	
-8.01873084E+000	-1.17865547E+002	
-7.99801753E+000	-1.17845741E+002	
-7.97730423E+000	-1.17832662E+002	
-7.95659092E+000	-1.17804333E+002	
-7.93587762E+000	-1.17810670E+002	
-7.91516431E+000	-1.17849181E+002	
-7.89445101E+000	-1.17852581E+002	
-7.87373770E+000	-1.17831478E+002	
-7.85302439E+000	-1.17822617E+002	
-7.83231109E+000	-1.17806404E+002	
-7.81159778E+000	-1.17865028E+002	
-7.79088448E+000	-1.17890416E+002	
-7.77017117E+000	-1.17916708E+002	
-7.74945787E+000	-1.17933981E+002	
-7.72874456E+000	-1.17952592E+002	
-7.70803126E+000	-1.17912662E+002	
-7.68731795E+000	-1.17948435E+002	
-7.66660465E+000	-1.17947901E+002	
-7.64589134E+000	-1.17948374E+002	
-7.62517804E+000	-1.17930558E+002	
-7.60446473E+000	-1.17870596E+002	
-7.58375143E+000	-1.17887722E+002	
-7.56303812E+000	-1.17917102E+002	
-7.54232482E+000	-1.17989752E+002	
-7.52161151E+000	-1.17981478E+002	
-7.50089820E+000	-1.18002002E+002	
-7.48018490E+000	-1.17978347E+002	
-7.45947159E+000	-1.18025039E+002	
-7.43875829E+000	-1.17957841E+002	
-7.41804498E+000	-1.17872127E+002	
-7.39733168E+000	-1.17918736E+002	
-7.37661837E+000	-1.17930010E+002	
-7.35590507E+000	-1.17941634E+002	
-7.33519176E+000	-1.17962555E+002	
-7.31447846E+000	-1.17975814E+002	
-7.29376515E+000	-1.17951099E+002	
-7.27305185E+000	-1.17918402E+002	
-7.25233854E+000	-1.17945500E+002	
-7.23162524E+000	-1.17958594E+002	
-7.21091193E+000	-1.17954630E+002	
-7.19019862E+000	-1.17957852E+002	
-7.16948532E+000	-1.18002021E+002	
-7.14877201E+000	-1.18072529E+002	
-7.12805871E+000	-1.18131150E+002	
-7.10734540E+000	-1.18205335E+002	
-7.08663210E+000	-1.18240989E+002	
-7.06591879E+000	-1.18218329E+002	
-7.04520549E+000	-1.18202122E+002	
-7.02449218E+000	-1.18176769E+002	
-7.00377888E+000	-1.18139652E+002	
-6.98306557E+000	-1.18181562E+002	
-6.96235227E+000	-1.18139178E+002	
-6.94163896E+000	-1.18161921E+002	
-6.92092566E+000	-1.18230890E+002	
-6.90021235E+000	-1.18226986E+002	
-6.87949904E+000	-1.18194081E+002	
-6.85878574E+000	-1.18174260E+002	
-6.83807243E+000	-1.18200719E+002	
-6.81735913E+000	-1.18217268E+002	
-6.79664582E+000	-1.18175347E+002	
-6.77593252E+000	-1.18210952E+002	
-6.75521921E+000	-1.18163900E+002	
-6.73450591E+000	-1.18151280E+002	
-6.71379260E+000	-1.18120942E+002	
-6.69307930E+000	-1.18117377E+002	
-6.67236599E+000	-1.18068521E+002	
-6.65165269E+000	-1.18050554E+002	
-6.63093938E+000	-1.18073749E+002	
-6.61022608E+000	-1.18098841E+002	
-6.58951277E+000	-1.18091369E+002	
-6.56879947E+000	-1.18084818E+002	
-6.54808616E+000	-1.18075991E+002	
-6.52737285E+000	-1.18050248E+002	
-6.50665955E+000	-1.18073186E+002	
-6.48594624E+000	-1.18114751E+002	
-6.46523294E+000	-1.18157326E+002	
-6.44451963E+000	-1.18097108E+002	
-6.42380633E+000	-1.18056295E+002	
-6.40309302E+000	-1.18046074E+002	
-6.38237972E+000	-1.18019024E+002	
-6.36166641E+000	-1.18016017E+002	
-6.34095311E+000	-1.18011935E+002	
-6.32023980E+000	-1.17999014E+002	
-6.29952650E+000	-1.18002176E+002	
-6.27881319E+000	-1.17977814E+002	
-6.25809989E+000	-1.17991653E+002	
-6.23738658E+000	-1.17981543E+002	
-6.21667327E+000	-1.17969935E+002	
-6.19595997E+000	-1.17979317E+002	
-6.17524666E+000	-1.17976787E+002	
-6.15453336E+000	-1.17971922E+002	
-6.13382005E+000	-1.17944824E+002	
-6.11310675E+000	-1.17943477E+002	
-6.09239344E+000	-1.17936483E+002	
-6.07168014E+000	-1.17884611E+002	
-6.05096683E+000	-1.17954228E+002	
-6.03025353E+000	-1.17968547E+002	
-6.00954022E+000	-1.17953926E+002	
-5.98882692E+000	-1.17899072E+002	
-5.96811361E+000	-1.17903895E+002	
-5.94740031E+000	-1.17945945E+002	
-5.92668700E+000	-1.17986249E+002	
-5.90597369E+000	-1.18009866E+002	
-5.88526039E+000	-1.18057063E+002	
-5.86454708E+000	-1.18083954E+002	
-5.84383378E+000	-1.18055128E+002	
-5.82312047E+000	-1.18078853E+002	
-5.80240717E+000	-1.18057195E+002	
-5.78169386E+000	-1.18074632E+002	
-5.76098056E+000	-1.18081669E+002	
-5.74026725E+000	-1.18090700E+002	
-5.71955395E+000	-1.18136782E+002	
-5.69884064E+000	-1.18134747E+002	
-5.67812734E+000	-1.18160287E+002	
-5.65741403E+000	-1.18154679E+002	
-5.63670073E+000	-1.18167039E+002	
-5.61598742E+000	-1.18147298E+002	
-5.59527412E+000	-1.18109761E+002	
-5.57456081E+000	-1.18175806E+002	
-5.55384750E+000	-1.18091736E+002	
-5.53313420E+000	-1.18027585E+002	
-5.51242089E+000	-1.18039919E+002	
-5.49170759E+000	-1.18040856E+002	
-5.47099428E+000	-1.18014743E+002	
-5.45028098E+000	-1.18068921E+002	
-5.42956767E+000	-1.18115581E+002	
-5.40885437E+000	-1.18106214E+002	
-5.38814106E+000	-1.18093619E+002	
-5.36742776E+000	-1.18061653E+002	
-5.34671445E+000	-1.18095741E+002	
-5.32600115E+000	-1.18090727E+002	
-5.30528784E+000	-1.18108048E+002	
-5.28457454E+000	-1.18077398E+002	
-5.26386123E+000	-1.18065527E+002	
-5.24314792E+000	-1.18002321E+002	
-5.22243462E+000	-1.17961167E+002	
-5.20172131E+000	-1.17966419E+002	
-5.18100801E+000	-1.17923959E+002	
-5.16029470E+000	-1.17916984E+002	
-5.13958140E+000	-1.17871964E+002	
-5.11886809E+000	-1.17838425E+002	
-5.09815479E+000	-1.17845302E+002	
-5.07744148E+000	-1.17811802E+002	
-5.05672818E+000	-1.17874898E+002	
-5.03601487E+000	-1.17884374E+002	
-5.01530157E+000	-1.17922236E+002	
-4.99458826E+000	-1.17935291E+002	
-4.97387496E+000	-1.17887233E+002	
-4.95316165E+000	-1.17884597E+002	
-4.93244834E+000	-1.17840381E+002	
-4.91173504E+000	-1.17817034E+002	
-4.89102173E+000	-1.17811888E+002	
-4.87030843E+000	-1.17857975E+002	
-4.84959512E+000	-1.17848575E+002	
-4.82888182E+000	-1.17806264E+002	
-4.80816851E+000	-1.17793728E+002	
-4.78745521E+000	-1.17811706E+002	
-4.76674190E+000	-1.17840099E+002	
-4.74602860E+000	-1.17873285E+002	
-4.72531529E+000	-1.17920551E+002	
-4.70460199E+000	-1.17905893E+002	
-4.68388868E+000	-1.17949308E+002	
-4.66317538E+000	-1.17944157E+002	
-4.64246207E+000	-1.17977160E+002	
-4.62174877E+000	-1.18020729E+002	
-4.60103546E+000	-1.18063715E+002	
-4.58032215E+000	-1.18089536E+002	
-4.55960885E+000	-1.18059672E+002	
-4.53889554E+000	-1.18085802E+002	
-4.51818224E+000	-1.18010679E+002	
-4.49746893E+000	-1.17958223E+002	
-4.47675563E+000	-1.18001189E+002	
-4.45604232E+000	-1.17990561E+002	
-4.43532902E+000	-1.17990358E+002	
-4.41461571E+000	-1.17976096E+002	
-4.39390241E+000	-1.18000667E+002	
-4.37318910E+000	-1.18001997E+002	
-4.35247580E+000	-1.17968232E+002	
-4.33176249E+000	-1.17959199E+002	
-4.31104919E+000	-1.17958473E+002	
-4.29033588E+000	-1.17955162E+002	
-4.26962257E+000	-1.17948215E+002	
-4.24890927E+000	-1.17984448E+002	
-4.22819596E+000	-1.17998188E+002	
-4.20748266E+000	-1.18039719E+002	
-4.18676935E+000	-1.17997809E+002	
-4.16605605E+000	-1.18007842E+002	
-4.14534274E+000	-1.18032524E+002	
-4.12462944E+000	-1.17997565E+002	
-4.10391613E+000	-1.17986255E+002	
-4.08320283E+000	-1.17972934E+002	
-4.06248952E+000	-1.17962524E+002	
-4.04177622E+000	-1.17931551E+002	
-4.02106291E+000	-1.17976243E+002	
-4.00034961E+000	-1.17988621E+002	
-3.97963630E+000	-1.17957853E+002	
-3.95892299E+000	-1.17965724E+002	
-3.93820969E+000	-1.17940344E+002	
-3.91749638E+000	-1.17959938E+002	
-3.89678308E+000	-1.17927164E+002	
-3.87606977E+000	-1.17850836E+002	
-3.85535647E+000	-1.17856284E+002	
-3.83464316E+000	-1.17856617E+002	
-3.81392986E+000	-1.17852071E+002	
-3.79321655E+000	-1.17880287E+002	
-3.77250325E+000	-1.17813119E+002	
-3.75178994E+000	-1.17813379E+002	
-3.73107664E+000	-1.17825344E+002	
-3.71036333E+000	-1.17769537E+002	
-3.68965003E+000	-1.17797198E+002	
-3.66893672E+000	-1.17845729E+002	
-3.64822342E+000	-1.17809047E+002	
-3.62751011E+000	-1.17820638E+002	
-3.60679680E+000	-1.17817436E+002	
-3.58608350E+000	-1.17817799E+002	
-3.56537019E+000	-1.17842574E+002	
-3.54465689E+000	-1.17854883E+002	
-3.52394358E+000	-1.17886133E+002	
-3.50323028E+000	-1.17926944E+002	
-3.48251697E+000	-1.17962653E+002	
-3.46180367E+000	-1.17989171E+002	
-3.44109036E+000	-1.18011261E+002	
-3.42037706E+000	-1.18043569E+002	
-3.39966375E+000	-1.18068206E+002	
-3.37895045E+000	-1.18115668E+002	
-3.35823714E+000	-1.18111918E+002	
-3.33752384E+000	-1.18117838E+002	
-3.31681053E+000	-1.18129923E+002	
-3.29609722E+000	-1.18101022E+002	
-3.27538392E+000	-1.18116667E+002	
-3.25467061E+000	-1.18121816E+002	
-3.23395731E+000	-1.18107635E+002	
-3.21324400E+000	-1.18126868E+002	
-3.19253070E+000	-1.18122210E+002	
-3.17181739E+000	-1.18091466E+002	
-3.15110409E+000	-1.18066370E+002	
-3.13039078E+000	-1.18057637E+002	
-3.10967748E+000	-1.18097083E+002	
-3.08896417E+000	-1.18082746E+002	
-3.06825087E+000	-1.18074546E+002	
-3.04753756E+000	-1.18091370E+002	
-3.02682426E+000	-1.18052484E+002	
-3.00611095E+000	-1.17981040E+002	
-2.98539764E+000	-1.18021227E+002	
-2.96468434E+000	-1.17985456E+002	
-2.94397103E+000	-1.17957219E+002	
-2.92325773E+000	-1.17919905E+002	
-2.90254442E+000	-1.17924982E+002	
-2.88183112E+000	-1.17942576E+002	
-2.86111781E+000	-1.17988329E+002	
-2.84040451E+000	-1.18028873E+002	
-2.81969120E+000	-1.18062547E+002	
-2.79897790E+000	-1.18123708E+002	
-2.77826459E+000	-1.18084399E+002	
-2.75755129E+000	-1.18059773E+002	
-2.73683798E+000	-1.18068826E+002	
-2.71612468E+000	-1.18024247E+002	
-2.69541137E+000	-1.18007261E+002	
-2.67469807E+000	-1.18066819E+002	
-2.65398476E+000	-1.18090895E+002	
-2.63327145E+000	-1.18088316E+002	
-2.61255815E+000	-1.18034345E+002	
-2.59184484E+000	-1.18036731E+002	
-2.57113154E+000	-1.18028003E+002	
-2.55041823E+000	-1.18028118E+002	
-2.52970493E+000	-1.18082403E+002	
-2.50899162E+000	-1.18150778E+002	
-2.48827832E+000	-1.18129434E+002	
-2.46756501E+000	-1.18128547E+002	
-2.44685171E+000	-1.18133226E+002	
-2.42613840E+000	-1.18155130E+002	
-2.40542510E+000	-1.18164837E+002	
-2.38471179E+000	-1.18141033E+002	
-2.36399849E+000	-1.18121659E+002	
-2.34328518E+000	-1.18068309E+002	
-2.32257187E+000	-1.18020139E+002	
-2.30185857E+000	-1.17948029E+002	
-2.28114526E+000	-1.17968367E+002	
-2.26043196E+000	-1.18049607E+002	
-2.23971865E+000	-1.18040623E+002	
-2.21900535E+000	-1.18093604E+002	
-2.19829204E+000	-1.18113304E+002	
-2.17757874E+000	-1.18074282E+002	
-2.15686543E+000	-1.18060860E+002	
-2.13615213E+000	-1.18109718E+002	
-2.11543882E+000	-1.18107880E+002	
-2.09472552E+000	-1.18118938E+002	
-2.07401221E+000	-1.18092497E+002	
-2.05329891E+000	-1.18043022E+002	
-2.03258560E+000	-1.18052245E+002	
-2.01187229E+000	-1.18046688E+002	
-1.99115899E+000	-1.18049295E+002	
-1.97044568E+000	-1.17983216E+002	
-1.94973238E+000	-1.17998475E+002	
-1.92901907E+000	-1.17980430E+002	
-1.90830577E+000	-1.17933821E+002	
-1.88759246E+000	-1.17933537E+002	
-1.86687916E+000	-1.17968411E+002	
-1.84616585E+000	-1.17941817E+002	
-1.82545255E+000	-1.18015806E+002	
-1.80473924E+000	-1.18027866E+002	
-1.78402594E+000	-1.18066771E+002	
-1.76331263E+000	-1.18064579E+002	
-1.74259933E+000	-1.18010574E+002	
-1.72188602E+000	-1.18008099E+002	
-1.70117272E+000	-1.18082159E+002	
-1.68045941E+000	-1.18105211E+002	
-1.65974610E+000	-1.18062906E+002	
-1.63903280E+000	-1.18026288E+002	
-1.61831949E+000	-1.18096674E+002	
-1.59760619E+000	-1.18116466E+002	
-1.57689288E+000	-1.18124662E+002	
-1.55617958E+000	-1.18177105E+002	
-1.53546627E+000	-1.18158437E+002	
-1.51475297E+000	-1.18164382E+002	
-1.49403966E+000	-1.18141008E+002	
-1.47332636E+000	-1.18195170E+002	
-1.45261305E+000	-1.18165201E+002	
-1.43189975E+000	-1.18164685E+002	
-1.41118644E+000	-1.18156170E+002	
-1.39047314E+000	-1.18180140E+002	
-1.36975983E+000	-1.18135641E+002	
-1.34904652E+000	-1.18134725E+002	
-1.32833322E+000	-1.18082800E+002	
-1.30761991E+000	-1.18029150E+002	
-1.28690661E+000	-1.18037012E+002	
-1.26619330E+000	-1.18025362E+002	
-1.24548000E+000	-1.18077771E+002	
-1.22476669E+000	-1.18101268E+002	
-1.20405339E+000	-1.18000340E+002	
-1.18334008E+000	-1.17988780E+002	
-1.16262678E+000	-1.18049282E+002	
-1.14191347E+000	-1.18077960E+002	
-1.12120017E+000	-1.18066412E+002	
-1.10048686E+000	-1.18033465E+002	
-1.07977356E+000	-1.18042565E+002	
-1.05906025E+000	-1.18079070E+002	
-1.03834694E+000	-1.18059431E+002	
-1.01763364E+000	-1.17995610E+002	
-9.96920334E-001	-1.17906691E+002	
-9.76207029E-001	-1.17862037E+002	
-9.55493724E-001	-1.17874714E+002	
-9.34780418E-001	-1.17888688E+002	
-9.14067113E-001	-1.17933841E+002	
-8.93353808E-001	-1.17920331E+002	
-8.72640502E-001	-1.17900287E+002	
-8.51927197E-001	-1.17931298E+002	
-8.31213892E-001	-1.17971033E+002	
-8.10500586E-001	-1.18038690E+002	
-7.89787281E-001	-1.18053881E+002	
-7.69073976E-001	-1.18062335E+002	
-7.48360671E-001	-1.18052734E+002	
-7.27647365E-001	-1.18042980E+002	
-7.06934060E-001	-1.18068899E+002	
-6.86220755E-001	-1.18097335E+002	
-6.65507449E-001	-1.18126756E+002	
-6.44794144E-001	-1.18119846E+002	
-6.24080839E-001	-1.18084168E+002	
-6.03367533E-001	-1.18081362E+002	
-5.82654228E-001	-1.18055169E+002	
-5.61940923E-001	-1.18001050E+002	
-5.41227617E-001	-1.17959886E+002	
-5.20514312E-001	-1.17987060E+002	
-4.99801007E-001	-1.18087246E+002	
-4.79087701E-001	-1.18168675E+002	
-4.58374396E-001	-1.18199877E+002	
-4.37661091E-001	-1.18163463E+002	
-4.16947785E-001	-1.18139668E+002	
-3.96234480E-001	-1.18132715E+002	
-3.75521175E-001	-1.18138313E+002	
-3.54807869E-001	-1.18151848E+002	
-3.34094564E-001	-1.18149611E+002	
-3.13381259E-001	-1.18160715E+002	
-2.92667954E-001	-1.18118558E+002	
-2.71954648E-001	-1.18029095E+002	
-2.51241343E-001	-8.61173473E+001	
-2.30528038E-001	-8.57957386E+001	
-2.09814732E-001	-8.57956906E+001	
-1.89101427E-001	-8.57956938E+001	
-1.68388122E-001	-8.57956870E+001	
-1.47674816E-001	-8.57956673E+001	
-1.26961511E-001	-8.57955980E+001	
-1.06248206E-001	-8.57955327E+001	
-8.55349003E-002	-8.57955411E+001	
-6.48215950E-002	-8.57955827E+001	
-4.41082897E-002	-8.57956530E+001	
-2.33949844E-002	-8.57956886E+001	
-2.68167905E-003	-8.57957065E+001	
1.80316263E-002	-8.57957000E+001	
3.87449316E-002	-8.57957148E+001	
5.94582369E-002	-8.57957634E+001	
8.01715422E-002	-8.57957985E+001	
1.00884848E-001	-8.57958266E+001	
1.21598153E-001	-8.57958702E+001	
1.42311458E-001	-8.57958823E+001	
1.63024763E-001	-8.57958970E+001	
1.83738069E-001	-8.57958899E+001	
2.04451374E-001	-8.57958909E+001	
2.25164679E-001	-8.57959252E+001	
2.45877985E-001	-9.23718091E+001	
2.66591290E-001	-1.18411600E+002	
2.87304595E-001	-1.18543830E+002	
3.08017901E-001	-1.18578645E+002	
3.28731206E-001	-1.18529372E+002	
3.49444511E-001	-1.18545695E+002	
3.70157817E-001	-1.18671114E+002	
3.90871122E-001	-1.18819802E+002	
4.11584427E-001	-1.18882108E+002	
4.32297733E-001	-1.18900191E+002	
4.53011038E-001	-1.18900838E+002	
4.73724343E-001	-1.18877449E+002	
4.94437649E-001	-1.18847823E+002	
5.15150954E-001	-1.18870552E+002	
5.35864259E-001	-1.18830725E+002	
5.56577565E-001	-1.18777682E+002	
5.77290870E-001	-1.18800164E+002	
5.98004175E-001	-1.18824912E+002	
6.18717481E-001	-1.18787588E+002	
6.39430786E-001	-1.18760332E+002	
6.60144091E-001	-1.18789904E+002	
6.80857396E-001	-1.18816409E+002	
7.01570702E-001	-1.18858877E+002	
7.22284007E-001	-1.18884039E+002	
7.42997312E-001	-1.18885890E+002	
7.63710618E-001	-1.18858517E+002	
7.84423923E-001	-1.18843078E+002	
8.05137228E-001	-1.18835418E+002	
8.25850534E-001	-1.18869200E+002	
8.46563839E-001	-1.18873168E+002	
8.67277144E-001	-1.18913474E+002	
8.87990450E-001	-1.18950060E+002	
9.08703755E-001	-1.18930267E+002	
9.29417060E-001	-1.18902072E+002	
9.50130366E-001	-1.18905782E+002	
9.70843671E-001	-1.18906398E+002	
9.91556976E-001	-1.18970832E+002	
1.01227028E+000	-1.18965508E+002	
1.03298359E+000	-1.19002349E+002	
1.05369689E+000	-1.19074331E+002	
1.07441020E+000	-1.19065155E+002	
1.09512350E+000	-1.19013774E+002	
1.11583681E+000	-1.18989675E+002	
1.13655011E+000	-1.19030326E+002	
1.15726342E+000	-1.19024741E+002	
1.17797672E+000	-1.19040104E+002	
1.19869003E+000	-1.19046028E+002	
1.21940333E+000	-1.19057101E+002	
1.24011664E+000	-1.19063768E+002	
1.26082995E+000	-1.19035294E+002	
1.28154325E+000	-1.19064880E+002	
1.30225656E+000	-1.19095398E+002	
1.32296986E+000	-1.19079950E+002	
1.34368317E+000	-1.19153584E+002	
1.36439647E+000	-1.19187270E+002	
1.38510978E+000	-1.19213155E+002	
1.40582308E+000	-1.19255480E+002	
1.42653639E+000	-1.19248892E+002	
1.44724969E+000	-1.19214251E+002	
1.46796300E+000	-1.19219599E+002	
1.48867630E+000	-1.19217946E+002	
1.50938961E+000	-1.19215379E+002	
1.53010291E+000	-1.19178233E+002	
1.55081622E+000	-1.19111500E+002	
1.57152953E+000	-1.19053172E+002	
1.59224283E+000	-1.19027201E+002	
1.61295614E+000	-1.19014379E+002	
1.63366944E+000	-1.18978523E+002	
1.65438275E+000	-1.18934482E+002	
1.67509605E+000	-1.18912896E+002	
1.69580936E+000	-1.18880060E+002	
1.71652266E+000	-1.18809606E+002	
1.73723597E+000	-1.18790935E+002	
1.75794927E+000	-1.18769576E+002	
1.77866258E+000	-1.18751244E+002	
1.79937588E+000	-1.18736971E+002	
1.82008919E+000	-1.18730978E+002	
1.84080249E+000	-1.18704025E+002	
