Time (ns)	Amplitude (dB)	
-1.00072081E+001	-1.20650473E+002	
-9.98649484E+000	-1.20320976E+002	
-9.96578154E+000	-1.19966187E+002	
-9.94506823E+000	-1.19703209E+002	
-9.92435493E+000	-1.19467773E+002	
-9.90364162E+000	-1.19229599E+002	
-9.88292832E+000	-1.19018226E+002	
-9.86221501E+000	-1.18805706E+002	
-9.84150171E+000	-1.18605658E+002	
-9.82078840E+000	-1.18427577E+002	
-9.80007509E+000	-1.18232826E+002	
-9.77936179E+000	-1.18035728E+002	
-9.75864848E+000	-1.17977419E+002	
-9.73793518E+000	-1.17985773E+002	
-9.71722187E+000	-1.17983155E+002	
-9.69650857E+000	-1.17985688E+002	
-9.67579526E+000	-1.18037701E+002	
-9.65508196E+000	-1.18022733E+002	
-9.63436865E+000	-1.17975280E+002	
-9.61365535E+000	-1.17980868E+002	
-9.59294204E+000	-1.18013486E+002	
-9.57222874E+000	-1.18037041E+002	
-9.55151543E+000	-1.18048432E+002	
-9.53080213E+000	-1.18040204E+002	
-9.51008882E+000	-1.18075817E+002	
-9.48937552E+000	-1.18101363E+002	
-9.46866221E+000	-1.18101654E+002	
-9.44794890E+000	-1.18072522E+002	
-9.42723560E+000	-1.18026993E+002	
-9.40652229E+000	-1.18021239E+002	
-9.38580899E+000	-1.17996054E+002	
-9.36509568E+000	-1.17988042E+002	
-9.34438238E+000	-1.17955079E+002	
-9.32366907E+000	-1.17928437E+002	
-9.30295577E+000	-1.17926695E+002	
-9.28224246E+000	-1.17944369E+002	
-9.26152916E+000	-1.17896894E+002	
-9.24081585E+000	-1.17841929E+002	
-9.22010255E+000	-1.17827387E+002	
-9.19938924E+000	-1.17866211E+002	
-9.17867594E+000	-1.17856495E+002	
-9.15796263E+000	-1.17863223E+002	
-9.13724932E+000	-1.17918964E+002	
-9.11653602E+000	-1.17921170E+002	
-9.09582271E+000	-1.17869484E+002	
-9.07510941E+000	-1.17875116E+002	
-9.05439610E+000	-1.17879284E+002	
-9.03368280E+000	-1.17754773E+002	
-9.01296949E+000	-1.17740340E+002	
-8.99225619E+000	-1.17744731E+002	
-8.97154288E+000	-1.17792874E+002	
-8.95082958E+000	-1.17812102E+002	
-8.93011627E+000	-1.17845269E+002	
-8.90940297E+000	-1.17868200E+002	
-8.88868966E+000	-1.17895809E+002	
-8.86797636E+000	-1.17882928E+002	
-8.84726305E+000	-1.17895876E+002	
-8.82654974E+000	-1.17882986E+002	
-8.80583644E+000	-1.17890968E+002	
-8.78512313E+000	-1.17888642E+002	
-8.76440983E+000	-1.17905034E+002	
-8.74369652E+000	-1.17963780E+002	
-8.72298322E+000	-1.17985023E+002	
-8.70226991E+000	-1.17914222E+002	
-8.68155661E+000	-1.17878000E+002	
-8.66084330E+000	-1.17905230E+002	
-8.64013000E+000	-1.17875279E+002	
-8.61941669E+000	-1.17835898E+002	
-8.59870339E+000	-1.17884807E+002	
-8.57799008E+000	-1.17887845E+002	
-8.55727678E+000	-1.17847973E+002	
-8.53656347E+000	-1.17963964E+002	
-8.51585017E+000	-1.17987507E+002	
-8.49513686E+000	-1.17991435E+002	
-8.47442355E+000	-1.17977346E+002	
-8.45371025E+000	-1.18002858E+002	
-8.43299694E+000	-1.18036866E+002	
-8.41228364E+000	-1.17997289E+002	
-8.39157033E+000	-1.17966261E+002	
-8.37085703E+000	-1.18013162E+002	
-8.35014372E+000	-1.18030719E+002	
-8.32943042E+000	-1.18052331E+002	
-8.30871711E+000	-1.18006272E+002	
-8.28800381E+000	-1.18043337E+002	
-8.26729050E+000	-1.18028758E+002	
-8.24657720E+000	-1.18021469E+002	
-8.22586389E+000	-1.18002769E+002	
-8.20515059E+000	-1.18048164E+002	
-8.18443728E+000	-1.18047658E+002	
-8.16372397E+000	-1.18035041E+002	
-8.14301067E+000	-1.17987978E+002	
-8.12229736E+000	-1.18004814E+002	
-8.10158406E+000	-1.17993101E+002	
-8.08087075E+000	-1.17993286E+002	
-8.06015745E+000	-1.17976835E+002	
-8.03944414E+000	-1.17921469E+002	
-8.01873084E+000	-1.17932074E+002	
-7.99801753E+000	-1.17913379E+002	
-7.97730423E+000	-1.17907335E+002	
-7.95659092E+000	-1.17885921E+002	
-7.93587762E+000	-1.17897098E+002	
-7.91516431E+000	-1.17935256E+002	
-7.89445101E+000	-1.17936233E+002	
-7.87373770E+000	-1.17914759E+002	
-7.85302439E+000	-1.17911913E+002	
-7.83231109E+000	-1.17890694E+002	
-7.81159778E+000	-1.17948442E+002	
-7.79088448E+000	-1.17971756E+002	
-7.77017117E+000	-1.17987940E+002	
-7.74945787E+000	-1.18005708E+002	
-7.72874456E+000	-1.18016252E+002	
-7.70803126E+000	-1.17977327E+002	
-7.68731795E+000	-1.18011671E+002	
-7.66660465E+000	-1.18002944E+002	
-7.64589134E+000	-1.18004215E+002	
-7.62517804E+000	-1.17986339E+002	
-7.60446473E+000	-1.17926346E+002	
-7.58375143E+000	-1.17938646E+002	
-7.56303812E+000	-1.17966697E+002	
-7.54232482E+000	-1.18037857E+002	
-7.52161151E+000	-1.18026025E+002	
-7.50089820E+000	-1.18042213E+002	
-7.48018490E+000	-1.18014815E+002	
-7.45947159E+000	-1.18052695E+002	
-7.43875829E+000	-1.17985830E+002	
-7.41804498E+000	-1.17900375E+002	
-7.39733168E+000	-1.17948119E+002	
-7.37661837E+000	-1.17965630E+002	
-7.35590507E+000	-1.17971554E+002	
-7.33519176E+000	-1.17989352E+002	
-7.31447846E+000	-1.18004854E+002	
-7.29376515E+000	-1.17976825E+002	
-7.27305185E+000	-1.17949871E+002	
-7.25233854E+000	-1.17982569E+002	
-7.23162524E+000	-1.17998786E+002	
-7.21091193E+000	-1.17994092E+002	
-7.19019862E+000	-1.17995804E+002	
-7.16948532E+000	-1.18047507E+002	
-7.14877201E+000	-1.18118217E+002	
-7.12805871E+000	-1.18173706E+002	
-7.10734540E+000	-1.18248469E+002	
-7.08663210E+000	-1.18280368E+002	
-7.06591879E+000	-1.18255802E+002	
-7.04520549E+000	-1.18237357E+002	
-7.02449218E+000	-1.18219544E+002	
-7.00377888E+000	-1.18183502E+002	
-6.98306557E+000	-1.18227115E+002	
-6.96235227E+000	-1.18183781E+002	
-6.94163896E+000	-1.18203921E+002	
-6.92092566E+000	-1.18274398E+002	
-6.90021235E+000	-1.18262106E+002	
-6.87949904E+000	-1.18226608E+002	
-6.85878574E+000	-1.18210017E+002	
-6.83807243E+000	-1.18237316E+002	
-6.81735913E+000	-1.18250948E+002	
-6.79664582E+000	-1.18212627E+002	
-6.77593252E+000	-1.18251263E+002	
-6.75521921E+000	-1.18202148E+002	
-6.73450591E+000	-1.18186228E+002	
-6.71379260E+000	-1.18155409E+002	
-6.69307930E+000	-1.18147482E+002	
-6.67236599E+000	-1.18094816E+002	
-6.65165269E+000	-1.18069118E+002	
-6.63093938E+000	-1.18090153E+002	
-6.61022608E+000	-1.18107199E+002	
-6.58951277E+000	-1.18099418E+002	
-6.56879947E+000	-1.18092698E+002	
-6.54808616E+000	-1.18084710E+002	
-6.52737285E+000	-1.18064920E+002	
-6.50665955E+000	-1.18090479E+002	
-6.48594624E+000	-1.18131031E+002	
-6.46523294E+000	-1.18172724E+002	
-6.44451963E+000	-1.18113026E+002	
-6.42380633E+000	-1.18073829E+002	
-6.40309302E+000	-1.18072053E+002	
-6.38237972E+000	-1.18046513E+002	
-6.36166641E+000	-1.18042968E+002	
-6.34095311E+000	-1.18040503E+002	
-6.32023980E+000	-1.18027490E+002	
-6.29952650E+000	-1.18034721E+002	
-6.27881319E+000	-1.18013158E+002	
-6.25809989E+000	-1.18027849E+002	
-6.23738658E+000	-1.18021184E+002	
-6.21667327E+000	-1.18013677E+002	
-6.19595997E+000	-1.18029880E+002	
-6.17524666E+000	-1.18031492E+002	
-6.15453336E+000	-1.18041612E+002	
-6.13382005E+000	-1.18022278E+002	
-6.11310675E+000	-1.18028365E+002	
-6.09239344E+000	-1.18033054E+002	
-6.07168014E+000	-1.17984492E+002	
-6.05096683E+000	-1.18049295E+002	
-6.03025353E+000	-1.18069521E+002	
-6.00954022E+000	-1.18059465E+002	
-5.98882692E+000	-1.18009831E+002	
-5.96811361E+000	-1.18013823E+002	
-5.94740031E+000	-1.18059528E+002	
-5.92668700E+000	-1.18100202E+002	
-5.90597369E+000	-1.18116170E+002	
-5.88526039E+000	-1.18167850E+002	
-5.86454708E+000	-1.18191533E+002	
-5.84383378E+000	-1.18155649E+002	
-5.82312047E+000	-1.18179822E+002	
-5.80240717E+000	-1.18147481E+002	
-5.78169386E+000	-1.18158373E+002	
-5.76098056E+000	-1.18160766E+002	
-5.74026725E+000	-1.18162278E+002	
-5.71955395E+000	-1.18208115E+002	
-5.69884064E+000	-1.18206890E+002	
-5.67812734E+000	-1.18244120E+002	
-5.65741403E+000	-1.18236839E+002	
-5.63670073E+000	-1.18246842E+002	
-5.61598742E+000	-1.18222182E+002	
-5.59527412E+000	-1.18177882E+002	
-5.57456081E+000	-1.18238874E+002	
-5.55384750E+000	-1.18150688E+002	
-5.53313420E+000	-1.18078234E+002	
-5.51242089E+000	-1.18085869E+002	
-5.49170759E+000	-1.18082428E+002	
-5.47099428E+000	-1.18058432E+002	
-5.45028098E+000	-1.18109911E+002	
-5.42956767E+000	-1.18149702E+002	
-5.40885437E+000	-1.18134113E+002	
-5.38814106E+000	-1.18114573E+002	
-5.36742776E+000	-1.18088436E+002	
-5.34671445E+000	-1.18127082E+002	
-5.32600115E+000	-1.18120073E+002	
-5.30528784E+000	-1.18141368E+002	
-5.28457454E+000	-1.18114862E+002	
-5.26386123E+000	-1.18100128E+002	
-5.24314792E+000	-1.18044759E+002	
-5.22243462E+000	-1.18003438E+002	
-5.20172131E+000	-1.18015226E+002	
-5.18100801E+000	-1.17957476E+002	
-5.16029470E+000	-1.17937288E+002	
-5.13958140E+000	-1.17894891E+002	
-5.11886809E+000	-1.17873594E+002	
-5.09815479E+000	-1.17888123E+002	
-5.07744148E+000	-1.17849667E+002	
-5.05672818E+000	-1.17916485E+002	
-5.03601487E+000	-1.17927460E+002	
-5.01530157E+000	-1.17963222E+002	
-4.99458826E+000	-1.17976208E+002	
-4.97387496E+000	-1.17923646E+002	
-4.95316165E+000	-1.17921312E+002	
-4.93244834E+000	-1.17885277E+002	
-4.91173504E+000	-1.17872140E+002	
-4.89102173E+000	-1.17868466E+002	
-4.87030843E+000	-1.17910786E+002	
-4.84959512E+000	-1.17893503E+002	
-4.82888182E+000	-1.17855474E+002	
-4.80816851E+000	-1.17853048E+002	
-4.78745521E+000	-1.17874293E+002	
-4.76674190E+000	-1.17903041E+002	
-4.74602860E+000	-1.17925013E+002	
-4.72531529E+000	-1.17975204E+002	
-4.70460199E+000	-1.17948578E+002	
-4.68388868E+000	-1.17993341E+002	
-4.66317538E+000	-1.17996685E+002	
-4.64246207E+000	-1.18032745E+002	
-4.62174877E+000	-1.18065794E+002	
-4.60103546E+000	-1.18099625E+002	
-4.58032215E+000	-1.18126041E+002	
-4.55960885E+000	-1.18100731E+002	
-4.53889554E+000	-1.18135360E+002	
-4.51818224E+000	-1.18057760E+002	
-4.49746893E+000	-1.18010821E+002	
-4.47675563E+000	-1.18066910E+002	
-4.45604232E+000	-1.18056744E+002	
-4.43532902E+000	-1.18047724E+002	
-4.41461571E+000	-1.18033579E+002	
-4.39390241E+000	-1.18060860E+002	
-4.37318910E+000	-1.18062997E+002	
-4.35247580E+000	-1.18039262E+002	
-4.33176249E+000	-1.18030738E+002	
-4.31104919E+000	-1.18021158E+002	
-4.29033588E+000	-1.18012315E+002	
-4.26962257E+000	-1.18006635E+002	
-4.24890927E+000	-1.18049695E+002	
-4.22819596E+000	-1.18062099E+002	
-4.20748266E+000	-1.18114487E+002	
-4.18676935E+000	-1.18071017E+002	
-4.16605605E+000	-1.18077357E+002	
-4.14534274E+000	-1.18094319E+002	
-4.12462944E+000	-1.18058783E+002	
-4.10391613E+000	-1.18051084E+002	
-4.08320283E+000	-1.18043844E+002	
-4.06248952E+000	-1.18038394E+002	
-4.04177622E+000	-1.18005807E+002	
-4.02106291E+000	-1.18051460E+002	
-4.00034961E+000	-1.18060153E+002	
-3.97963630E+000	-1.18022770E+002	
-3.95892299E+000	-1.18032436E+002	
-3.93820969E+000	-1.18016454E+002	
-3.91749638E+000	-1.18041058E+002	
-3.89678308E+000	-1.18000944E+002	
-3.87606977E+000	-1.17923834E+002	
-3.85535647E+000	-1.17923479E+002	
-3.83464316E+000	-1.17919571E+002	
-3.81392986E+000	-1.17920501E+002	
-3.79321655E+000	-1.17946939E+002	
-3.77250325E+000	-1.17877868E+002	
-3.75178994E+000	-1.17877288E+002	
-3.73107664E+000	-1.17888893E+002	
-3.71036333E+000	-1.17824066E+002	
-3.68965003E+000	-1.17852278E+002	
-3.66893672E+000	-1.17902033E+002	
-3.64822342E+000	-1.17865824E+002	
-3.62751011E+000	-1.17885904E+002	
-3.60679680E+000	-1.17884673E+002	
-3.58608350E+000	-1.17879754E+002	
-3.56537019E+000	-1.17900596E+002	
-3.54465689E+000	-1.17911731E+002	
-3.52394358E+000	-1.17939035E+002	
-3.50323028E+000	-1.17973937E+002	
-3.48251697E+000	-1.18002280E+002	
-3.46180367E+000	-1.18027481E+002	
-3.44109036E+000	-1.18045488E+002	
-3.42037706E+000	-1.18076644E+002	
-3.39966375E+000	-1.18111723E+002	
-3.37895045E+000	-1.18164690E+002	
-3.35823714E+000	-1.18165487E+002	
-3.33752384E+000	-1.18170879E+002	
-3.31681053E+000	-1.18177599E+002	
-3.29609722E+000	-1.18149390E+002	
-3.27538392E+000	-1.18169864E+002	
-3.25467061E+000	-1.18178786E+002	
-3.23395731E+000	-1.18161379E+002	
-3.21324400E+000	-1.18183099E+002	
-3.19253070E+000	-1.18181913E+002	
-3.17181739E+000	-1.18152593E+002	
-3.15110409E+000	-1.18128910E+002	
-3.13039078E+000	-1.18109173E+002	
-3.10967748E+000	-1.18144572E+002	
-3.08896417E+000	-1.18135725E+002	
-3.06825087E+000	-1.18130406E+002	
-3.04753756E+000	-1.18144061E+002	
-3.02682426E+000	-1.18108486E+002	
-3.00611095E+000	-1.18042431E+002	
-2.98539764E+000	-1.18088194E+002	
-2.96468434E+000	-1.18050412E+002	
-2.94397103E+000	-1.18022355E+002	
-2.92325773E+000	-1.17979576E+002	
-2.90254442E+000	-1.17979447E+002	
-2.88183112E+000	-1.17992039E+002	
-2.86111781E+000	-1.18033661E+002	
-2.84040451E+000	-1.18082274E+002	
-2.81969120E+000	-1.18121278E+002	
-2.79897790E+000	-1.18184581E+002	
-2.77826459E+000	-1.18146014E+002	
-2.75755129E+000	-1.18118218E+002	
-2.73683798E+000	-1.18132438E+002	
-2.71612468E+000	-1.18088952E+002	
-2.69541137E+000	-1.18065434E+002	
-2.67469807E+000	-1.18126438E+002	
-2.65398476E+000	-1.18151005E+002	
-2.63327145E+000	-1.18148957E+002	
-2.61255815E+000	-1.18084808E+002	
-2.59184484E+000	-1.18083125E+002	
-2.57113154E+000	-1.18074531E+002	
-2.55041823E+000	-1.18073654E+002	
-2.52970493E+000	-1.18126591E+002	
-2.50899162E+000	-1.18190476E+002	
-2.48827832E+000	-1.18165826E+002	
-2.46756501E+000	-1.18162522E+002	
-2.44685171E+000	-1.18161717E+002	
-2.42613840E+000	-1.18180161E+002	
-2.40542510E+000	-1.18189631E+002	
-2.38471179E+000	-1.18167600E+002	
-2.36399849E+000	-1.18145519E+002	
-2.34328518E+000	-1.18091443E+002	
-2.32257187E+000	-1.18038430E+002	
-2.30185857E+000	-1.17966307E+002	
-2.28114526E+000	-1.17983311E+002	
-2.26043196E+000	-1.18062838E+002	
-2.23971865E+000	-1.18053215E+002	
-2.21900535E+000	-1.18107169E+002	
-2.19829204E+000	-1.18131696E+002	
-2.17757874E+000	-1.18089561E+002	
-2.15686543E+000	-1.18072890E+002	
-2.13615213E+000	-1.18124774E+002	
-2.11543882E+000	-1.18133594E+002	
-2.09472552E+000	-1.18152391E+002	
-2.07401221E+000	-1.18117609E+002	
-2.05329891E+000	-1.18063174E+002	
-2.03258560E+000	-1.18068995E+002	
-2.01187229E+000	-1.18066380E+002	
-1.99115899E+000	-1.18074347E+002	
-1.97044568E+000	-1.18011028E+002	
-1.94973238E+000	-1.18030024E+002	
-1.92901907E+000	-1.18013067E+002	
-1.90830577E+000	-1.17971315E+002	
-1.88759246E+000	-1.17973526E+002	
-1.86687916E+000	-1.18013110E+002	
-1.84616585E+000	-1.17985140E+002	
-1.82545255E+000	-1.18060547E+002	
-1.80473924E+000	-1.18071410E+002	
-1.78402594E+000	-1.18112803E+002	
-1.76331263E+000	-1.18114366E+002	
-1.74259933E+000	-1.18066648E+002	
-1.72188602E+000	-1.18061022E+002	
-1.70117272E+000	-1.18133224E+002	
-1.68045941E+000	-1.18161220E+002	
-1.65974610E+000	-1.18118970E+002	
-1.63903280E+000	-1.18081901E+002	
-1.61831949E+000	-1.18146803E+002	
-1.59760619E+000	-1.18157170E+002	
-1.57689288E+000	-1.18175961E+002	
-1.55617958E+000	-1.18240689E+002	
-1.53546627E+000	-1.18226841E+002	
-1.51475297E+000	-1.18226036E+002	
-1.49403966E+000	-1.18197135E+002	
-1.47332636E+000	-1.18247228E+002	
-1.45261305E+000	-1.18213292E+002	
-1.43189975E+000	-1.18216022E+002	
-1.41118644E+000	-1.18205615E+002	
-1.39047314E+000	-1.18225737E+002	
-1.36975983E+000	-1.18184553E+002	
-1.34904652E+000	-1.18180283E+002	
-1.32833322E+000	-1.18130082E+002	
-1.30761991E+000	-1.18077693E+002	
-1.28690661E+000	-1.18080015E+002	
-1.26619330E+000	-1.18061288E+002	
-1.24548000E+000	-1.18105895E+002	
-1.22476669E+000	-1.18130235E+002	
-1.20405339E+000	-1.18030550E+002	
-1.18334008E+000	-1.18019580E+002	
-1.16262678E+000	-1.18089657E+002	
-1.14191347E+000	-1.18121657E+002	
-1.12120017E+000	-1.18114167E+002	
-1.10048686E+000	-1.18088625E+002	
-1.07977356E+000	-1.18093627E+002	
-1.05906025E+000	-1.18128341E+002	
-1.03834694E+000	-1.18108692E+002	
-1.01763364E+000	-1.18049521E+002	
-9.96920334E-001	-1.17965295E+002	
-9.76207029E-001	-1.17928518E+002	
-9.55493724E-001	-1.17948093E+002	
-9.34780418E-001	-1.17963708E+002	
-9.14067113E-001	-1.18004360E+002	
-8.93353808E-001	-1.17988474E+002	
-8.72640502E-001	-1.17962097E+002	
-8.51927197E-001	-1.17996182E+002	
-8.31213892E-001	-1.18032428E+002	
-8.10500586E-001	-1.18099581E+002	
-7.89787281E-001	-1.18123562E+002	
-7.69073976E-001	-1.18142619E+002	
-7.48360671E-001	-1.18134650E+002	
-7.27647365E-001	-1.18125739E+002	
-7.06934060E-001	-1.18153044E+002	
-6.86220755E-001	-1.18174412E+002	
-6.65507449E-001	-1.18196779E+002	
-6.44794144E-001	-1.18186634E+002	
-6.24080839E-001	-1.18145304E+002	
-6.03367533E-001	-1.18142934E+002	
-5.82654228E-001	-1.18119012E+002	
-5.61940923E-001	-1.18068875E+002	
-5.41227617E-001	-1.18029638E+002	
-5.20514312E-001	-1.18053328E+002	
-4.99801007E-001	-1.18158194E+002	
-4.79087701E-001	-1.18242155E+002	
-4.58374396E-001	-1.18270996E+002	
-4.37661091E-001	-1.18235697E+002	
-4.16947785E-001	-1.18216694E+002	
-3.96234480E-001	-1.18226353E+002	
-3.75521175E-001	-1.18235890E+002	
-3.54807869E-001	-1.18246544E+002	
-3.34094564E-001	-1.18249693E+002	
-3.13381259E-001	-1.18258462E+002	
-2.92667954E-001	-1.18209906E+002	
-2.71954648E-001	-1.18151721E+002	
-2.51241343E-001	-8.60011331E+001	
-2.30528038E-001	-8.56603838E+001	
-2.09814732E-001	-8.56603568E+001	
-1.89101427E-001	-8.56603571E+001	
-1.68388122E-001	-8.56603530E+001	
-1.47674816E-001	-8.56603322E+001	
-1.26961511E-001	-8.56602614E+001	
-1.06248206E-001	-8.56602108E+001	
-8.55349003E-002	-8.56602321E+001	
-6.48215950E-002	-8.56602641E+001	
-4.41082897E-002	-8.56603256E+001	
-2.33949844E-002	-8.56603597E+001	
-2.68167905E-003	-8.56603778E+001	
1.80316263E-002	-8.56603659E+001	
3.87449316E-002	-8.56603740E+001	
5.94582369E-002	-8.56604189E+001	
8.01715422E-002	-8.56604453E+001	
1.00884848E-001	-8.56604647E+001	
1.21598153E-001	-8.56605105E+001	
1.42311458E-001	-8.56605228E+001	
1.63024763E-001	-8.56605338E+001	
1.83738069E-001	-8.56605235E+001	
2.04451374E-001	-8.56605278E+001	
2.25164679E-001	-8.56605469E+001	
2.45877985E-001	-9.21569760E+001	
2.66591290E-001	-1.18505323E+002	
2.87304595E-001	-1.18580406E+002	
3.08017901E-001	-1.18620257E+002	
3.28731206E-001	-1.18573771E+002	
3.49444511E-001	-1.18588501E+002	
3.70157817E-001	-1.18732386E+002	
3.90871122E-001	-1.18861668E+002	
4.11584427E-001	-1.18885995E+002	
4.32297733E-001	-1.18906940E+002	
4.53011038E-001	-1.18917494E+002	
4.73724343E-001	-1.18890927E+002	
4.94437649E-001	-1.18851433E+002	
5.15150954E-001	-1.18879604E+002	
5.35864259E-001	-1.18848047E+002	
5.56577565E-001	-1.18798238E+002	
5.77290870E-001	-1.18827566E+002	
5.98004175E-001	-1.18860870E+002	
6.18717481E-001	-1.18817576E+002	
6.39430786E-001	-1.18794112E+002	
6.60144091E-001	-1.18820718E+002	
6.80857396E-001	-1.18860586E+002	
7.01570702E-001	-1.18901396E+002	
7.22284007E-001	-1.18915503E+002	
7.42997312E-001	-1.18919296E+002	
7.63710618E-001	-1.18901015E+002	
7.84423923E-001	-1.18895817E+002	
8.05137228E-001	-1.18890980E+002	
8.25850534E-001	-1.18926174E+002	
8.46563839E-001	-1.18931771E+002	
8.67277144E-001	-1.18976787E+002	
8.87990450E-001	-1.19003954E+002	
9.08703755E-001	-1.18976290E+002	
9.29417060E-001	-1.18952488E+002	
9.50130366E-001	-1.18958909E+002	
9.70843671E-001	-1.18964948E+002	
9.91556976E-001	-1.19039477E+002	
1.01227028E+000	-1.19031289E+002	
1.03298359E+000	-1.19067484E+002	
1.05369689E+000	-1.19143699E+002	
1.07441020E+000	-1.19138842E+002	
1.09512350E+000	-1.19087378E+002	
1.11583681E+000	-1.19059860E+002	
1.13655011E+000	-1.19093634E+002	
1.15726342E+000	-1.19086002E+002	
1.17797672E+000	-1.19100101E+002	
1.19869003E+000	-1.19102435E+002	
1.21940333E+000	-1.19120181E+002	
1.24011664E+000	-1.19119084E+002	
1.26082995E+000	-1.19082344E+002	
1.28154325E+000	-1.19112099E+002	
1.30225656E+000	-1.19145251E+002	
1.32296986E+000	-1.19130898E+002	
1.34368317E+000	-1.19196415E+002	
1.36439647E+000	-1.19228164E+002	
1.38510978E+000	-1.19259174E+002	
1.40582308E+000	-1.19306654E+002	
1.42653639E+000	-1.19300844E+002	
1.44724969E+000	-1.19259898E+002	
1.46796300E+000	-1.19263737E+002	
1.48867630E+000	-1.19254802E+002	
1.50938961E+000	-1.19249951E+002	
1.53010291E+000	-1.19222328E+002	
1.55081622E+000	-1.19155102E+002	
1.57152953E+000	-1.19095232E+002	
1.59224283E+000	-1.19061490E+002	
1.61295614E+000	-1.19046354E+002	
1.63366944E+000	-1.19003010E+002	
1.65438275E+000	-1.18963910E+002	
1.67509605E+000	-1.18941559E+002	
1.69580936E+000	-1.18910578E+002	
1.71652266E+000	-1.18836310E+002	
1.73723597E+000	-1.18823239E+002	
1.75794927E+000	-1.18802779E+002	
1.77866258E+000	-1.18789116E+002	
1.79937588E+000	-1.18774431E+002	
1.82008919E+000	-1.18769223E+002	
1.84080249E+000	-1.18750234E+002	
