Time (ns)	Amplitude (dB)	
-1.00072081E+001	-1.20548416E+002	
-9.98649484E+000	-1.20215295E+002	
-9.96578154E+000	-1.19854353E+002	
-9.94506823E+000	-1.19591169E+002	
-9.92435493E+000	-1.19356053E+002	
-9.90364162E+000	-1.19117427E+002	
-9.88292832E+000	-1.18904896E+002	
-9.86221501E+000	-1.18699136E+002	
-9.84150171E+000	-1.18501324E+002	
-9.82078840E+000	-1.18320747E+002	
-9.80007509E+000	-1.18119406E+002	
-9.77936179E+000	-1.17922980E+002	
-9.75864848E+000	-1.17863630E+002	
-9.73793518E+000	-1.17874498E+002	
-9.71722187E+000	-1.17874283E+002	
-9.69650857E+000	-1.17877562E+002	
-9.67579526E+000	-1.17933376E+002	
-9.65508196E+000	-1.17923223E+002	
-9.63436865E+000	-1.17871474E+002	
-9.61365535E+000	-1.17876010E+002	
-9.59294204E+000	-1.17904482E+002	
-9.57222874E+000	-1.17928663E+002	
-9.55151543E+000	-1.17939382E+002	
-9.53080213E+000	-1.17932316E+002	
-9.51008882E+000	-1.17963210E+002	
-9.48937552E+000	-1.17988957E+002	
-9.46866221E+000	-1.17991236E+002	
-9.44794890E+000	-1.17960882E+002	
-9.42723560E+000	-1.17918265E+002	
-9.40652229E+000	-1.17917757E+002	
-9.38580899E+000	-1.17897339E+002	
-9.36509568E+000	-1.17883720E+002	
-9.34438238E+000	-1.17848154E+002	
-9.32366907E+000	-1.17821668E+002	
-9.30295577E+000	-1.17819739E+002	
-9.28224246E+000	-1.17835297E+002	
-9.26152916E+000	-1.17791464E+002	
-9.24081585E+000	-1.17738380E+002	
-9.22010255E+000	-1.17730281E+002	
-9.19938924E+000	-1.17768050E+002	
-9.17867594E+000	-1.17755518E+002	
-9.15796263E+000	-1.17755400E+002	
-9.13724932E+000	-1.17813160E+002	
-9.11653602E+000	-1.17818937E+002	
-9.09582271E+000	-1.17770719E+002	
-9.07510941E+000	-1.17776660E+002	
-9.05439610E+000	-1.17781007E+002	
-9.03368280E+000	-1.17652950E+002	
-9.01296949E+000	-1.17643280E+002	
-8.99225619E+000	-1.17648586E+002	
-8.97154288E+000	-1.17702870E+002	
-8.95082958E+000	-1.17723105E+002	
-8.93011627E+000	-1.17756385E+002	
-8.90940297E+000	-1.17777783E+002	
-8.88868966E+000	-1.17800662E+002	
-8.86797636E+000	-1.17791954E+002	
-8.84726305E+000	-1.17803510E+002	
-8.82654974E+000	-1.17787516E+002	
-8.80583644E+000	-1.17804866E+002	
-8.78512313E+000	-1.17805952E+002	
-8.76440983E+000	-1.17819775E+002	
-8.74369652E+000	-1.17877744E+002	
-8.72298322E+000	-1.17896778E+002	
-8.70226991E+000	-1.17826474E+002	
-8.68155661E+000	-1.17792478E+002	
-8.66084330E+000	-1.17826788E+002	
-8.64013000E+000	-1.17798487E+002	
-8.61941669E+000	-1.17755524E+002	
-8.59870339E+000	-1.17801433E+002	
-8.57799008E+000	-1.17802345E+002	
-8.55727678E+000	-1.17760424E+002	
-8.53656347E+000	-1.17883652E+002	
-8.51585017E+000	-1.17906179E+002	
-8.49513686E+000	-1.17909507E+002	
-8.47442355E+000	-1.17893479E+002	
-8.45371025E+000	-1.17925353E+002	
-8.43299694E+000	-1.17963532E+002	
-8.41228364E+000	-1.17926733E+002	
-8.39157033E+000	-1.17900525E+002	
-8.37085703E+000	-1.17949344E+002	
-8.35014372E+000	-1.17967714E+002	
-8.32943042E+000	-1.17984756E+002	
-8.30871711E+000	-1.17941747E+002	
-8.28800381E+000	-1.17976483E+002	
-8.26729050E+000	-1.17958877E+002	
-8.24657720E+000	-1.17953311E+002	
-8.22586389E+000	-1.17925221E+002	
-8.20515059E+000	-1.17972583E+002	
-8.18443728E+000	-1.17974033E+002	
-8.16372397E+000	-1.17962254E+002	
-8.14301067E+000	-1.17916171E+002	
-8.12229736E+000	-1.17931362E+002	
-8.10158406E+000	-1.17925843E+002	
-8.08087075E+000	-1.17918167E+002	
-8.06015745E+000	-1.17900142E+002	
-8.03944414E+000	-1.17846493E+002	
-8.01873084E+000	-1.17859815E+002	
-7.99801753E+000	-1.17843523E+002	
-7.97730423E+000	-1.17839530E+002	
-7.95659092E+000	-1.17809205E+002	
-7.93587762E+000	-1.17815319E+002	
-7.91516431E+000	-1.17848789E+002	
-7.89445101E+000	-1.17842933E+002	
-7.87373770E+000	-1.17819128E+002	
-7.85302439E+000	-1.17815161E+002	
-7.83231109E+000	-1.17806254E+002	
-7.81159778E+000	-1.17862008E+002	
-7.79088448E+000	-1.17886897E+002	
-7.77017117E+000	-1.17914866E+002	
-7.74945787E+000	-1.17931710E+002	
-7.72874456E+000	-1.17947611E+002	
-7.70803126E+000	-1.17904329E+002	
-7.68731795E+000	-1.17934608E+002	
-7.66660465E+000	-1.17921709E+002	
-7.64589134E+000	-1.17918944E+002	
-7.62517804E+000	-1.17897240E+002	
-7.60446473E+000	-1.17831732E+002	
-7.58375143E+000	-1.17851225E+002	
-7.56303812E+000	-1.17882326E+002	
-7.54232482E+000	-1.17949831E+002	
-7.52161151E+000	-1.17934336E+002	
-7.50089820E+000	-1.17952159E+002	
-7.48018490E+000	-1.17922028E+002	
-7.45947159E+000	-1.17960722E+002	
-7.43875829E+000	-1.17894983E+002	
-7.41804498E+000	-1.17809154E+002	
-7.39733168E+000	-1.17864097E+002	
-7.37661837E+000	-1.17880606E+002	
-7.35590507E+000	-1.17889886E+002	
-7.33519176E+000	-1.17903179E+002	
-7.31447846E+000	-1.17915347E+002	
-7.29376515E+000	-1.17885916E+002	
-7.27305185E+000	-1.17851778E+002	
-7.25233854E+000	-1.17882138E+002	
-7.23162524E+000	-1.17893072E+002	
-7.21091193E+000	-1.17887776E+002	
-7.19019862E+000	-1.17885669E+002	
-7.16948532E+000	-1.17935901E+002	
-7.14877201E+000	-1.18007144E+002	
-7.12805871E+000	-1.18069573E+002	
-7.10734540E+000	-1.18146867E+002	
-7.08663210E+000	-1.18182602E+002	
-7.06591879E+000	-1.18159550E+002	
-7.04520549E+000	-1.18140999E+002	
-7.02449218E+000	-1.18117967E+002	
-7.00377888E+000	-1.18082390E+002	
-6.98306557E+000	-1.18124125E+002	
-6.96235227E+000	-1.18081534E+002	
-6.94163896E+000	-1.18105898E+002	
-6.92092566E+000	-1.18176727E+002	
-6.90021235E+000	-1.18161416E+002	
-6.87949904E+000	-1.18126884E+002	
-6.85878574E+000	-1.18109617E+002	
-6.83807243E+000	-1.18137142E+002	
-6.81735913E+000	-1.18156945E+002	
-6.79664582E+000	-1.18118158E+002	
-6.77593252E+000	-1.18156375E+002	
-6.75521921E+000	-1.18103111E+002	
-6.73450591E+000	-1.18094597E+002	
-6.71379260E+000	-1.18073597E+002	
-6.69307930E+000	-1.18076794E+002	
-6.67236599E+000	-1.18031631E+002	
-6.65165269E+000	-1.18005216E+002	
-6.63093938E+000	-1.18024889E+002	
-6.61022608E+000	-1.18046902E+002	
-6.58951277E+000	-1.18040129E+002	
-6.56879947E+000	-1.18032591E+002	
-6.54808616E+000	-1.18018310E+002	
-6.52737285E+000	-1.17992499E+002	
-6.50665955E+000	-1.18013252E+002	
-6.48594624E+000	-1.18052632E+002	
-6.46523294E+000	-1.18094136E+002	
-6.44451963E+000	-1.18024005E+002	
-6.42380633E+000	-1.17981383E+002	
-6.40309302E+000	-1.17982574E+002	
-6.38237972E+000	-1.17953574E+002	
-6.36166641E+000	-1.17950840E+002	
-6.34095311E+000	-1.17945335E+002	
-6.32023980E+000	-1.17925883E+002	
-6.29952650E+000	-1.17935345E+002	
-6.27881319E+000	-1.17911578E+002	
-6.25809989E+000	-1.17921485E+002	
-6.23738658E+000	-1.17914790E+002	
-6.21667327E+000	-1.17894827E+002	
-6.19595997E+000	-1.17902335E+002	
-6.17524666E+000	-1.17898870E+002	
-6.15453336E+000	-1.17900458E+002	
-6.13382005E+000	-1.17878292E+002	
-6.11310675E+000	-1.17884504E+002	
-6.09239344E+000	-1.17881059E+002	
-6.07168014E+000	-1.17831569E+002	
-6.05096683E+000	-1.17901175E+002	
-6.03025353E+000	-1.17919221E+002	
-6.00954022E+000	-1.17911280E+002	
-5.98882692E+000	-1.17866624E+002	
-5.96811361E+000	-1.17874277E+002	
-5.94740031E+000	-1.17925944E+002	
-5.92668700E+000	-1.17968413E+002	
-5.90597369E+000	-1.17982541E+002	
-5.88526039E+000	-1.18031553E+002	
-5.86454708E+000	-1.18055619E+002	
-5.84383378E+000	-1.18023660E+002	
-5.82312047E+000	-1.18045803E+002	
-5.80240717E+000	-1.18019009E+002	
-5.78169386E+000	-1.18031171E+002	
-5.76098056E+000	-1.18034322E+002	
-5.74026725E+000	-1.18037377E+002	
-5.71955395E+000	-1.18085725E+002	
-5.69884064E+000	-1.18090237E+002	
-5.67812734E+000	-1.18120231E+002	
-5.65741403E+000	-1.18119705E+002	
-5.63670073E+000	-1.18136654E+002	
-5.61598742E+000	-1.18109163E+002	
-5.59527412E+000	-1.18074449E+002	
-5.57456081E+000	-1.18136925E+002	
-5.55384750E+000	-1.18046898E+002	
-5.53313420E+000	-1.17981377E+002	
-5.51242089E+000	-1.18005103E+002	
-5.49170759E+000	-1.18002917E+002	
-5.47099428E+000	-1.17982298E+002	
-5.45028098E+000	-1.18039356E+002	
-5.42956767E+000	-1.18078391E+002	
-5.40885437E+000	-1.18065984E+002	
-5.38814106E+000	-1.18060292E+002	
-5.36742776E+000	-1.18040524E+002	
-5.34671445E+000	-1.18070284E+002	
-5.32600115E+000	-1.18075901E+002	
-5.30528784E+000	-1.18095341E+002	
-5.28457454E+000	-1.18068636E+002	
-5.26386123E+000	-1.18059852E+002	
-5.24314792E+000	-1.17997139E+002	
-5.22243462E+000	-1.17956199E+002	
-5.20172131E+000	-1.17955476E+002	
-5.18100801E+000	-1.17902586E+002	
-5.16029470E+000	-1.17898767E+002	
-5.13958140E+000	-1.17858460E+002	
-5.11886809E+000	-1.17831078E+002	
-5.09815479E+000	-1.17837443E+002	
-5.07744148E+000	-1.17803986E+002	
-5.05672818E+000	-1.17874671E+002	
-5.03601487E+000	-1.17893725E+002	
-5.01530157E+000	-1.17919788E+002	
-4.99458826E+000	-1.17926147E+002	
-4.97387496E+000	-1.17869208E+002	
-4.95316165E+000	-1.17863477E+002	
-4.93244834E+000	-1.17825524E+002	
-4.91173504E+000	-1.17811325E+002	
-4.89102173E+000	-1.17802649E+002	
-4.87030843E+000	-1.17830899E+002	
-4.84959512E+000	-1.17812410E+002	
-4.82888182E+000	-1.17770297E+002	
-4.80816851E+000	-1.17758208E+002	
-4.78745521E+000	-1.17773756E+002	
-4.76674190E+000	-1.17803294E+002	
-4.74602860E+000	-1.17830377E+002	
-4.72531529E+000	-1.17882088E+002	
-4.70460199E+000	-1.17871912E+002	
-4.68388868E+000	-1.17922065E+002	
-4.66317538E+000	-1.17914921E+002	
-4.64246207E+000	-1.17946698E+002	
-4.62174877E+000	-1.17986750E+002	
-4.60103546E+000	-1.18029224E+002	
-4.58032215E+000	-1.18052355E+002	
-4.55960885E+000	-1.18024258E+002	
-4.53889554E+000	-1.18052595E+002	
-4.51818224E+000	-1.17983480E+002	
-4.49746893E+000	-1.17938621E+002	
-4.47675563E+000	-1.17987765E+002	
-4.45604232E+000	-1.17971616E+002	
-4.43532902E+000	-1.17967863E+002	
-4.41461571E+000	-1.17950086E+002	
-4.39390241E+000	-1.17969341E+002	
-4.37318910E+000	-1.17977074E+002	
-4.35247580E+000	-1.17959223E+002	
-4.33176249E+000	-1.17953452E+002	
-4.31104919E+000	-1.17946248E+002	
-4.29033588E+000	-1.17942234E+002	
-4.26962257E+000	-1.17933166E+002	
-4.24890927E+000	-1.17975805E+002	
-4.22819596E+000	-1.17991519E+002	
-4.20748266E+000	-1.18036524E+002	
-4.18676935E+000	-1.17991736E+002	
-4.16605605E+000	-1.18000771E+002	
-4.14534274E+000	-1.18016339E+002	
-4.12462944E+000	-1.17975938E+002	
-4.10391613E+000	-1.17959131E+002	
-4.08320283E+000	-1.17947410E+002	
-4.06248952E+000	-1.17935026E+002	
-4.04177622E+000	-1.17902259E+002	
-4.02106291E+000	-1.17934795E+002	
-4.00034961E+000	-1.17937686E+002	
-3.97963630E+000	-1.17903919E+002	
-3.95892299E+000	-1.17916699E+002	
-3.93820969E+000	-1.17896494E+002	
-3.91749638E+000	-1.17922780E+002	
-3.89678308E+000	-1.17888206E+002	
-3.87606977E+000	-1.17816937E+002	
-3.85535647E+000	-1.17822260E+002	
-3.83464316E+000	-1.17820303E+002	
-3.81392986E+000	-1.17818385E+002	
-3.79321655E+000	-1.17852688E+002	
-3.77250325E+000	-1.17791706E+002	
-3.75178994E+000	-1.17794135E+002	
-3.73107664E+000	-1.17799546E+002	
-3.71036333E+000	-1.17732864E+002	
-3.68965003E+000	-1.17762402E+002	
-3.66893672E+000	-1.17804410E+002	
-3.64822342E+000	-1.17770988E+002	
-3.62751011E+000	-1.17789274E+002	
-3.60679680E+000	-1.17791166E+002	
-3.58608350E+000	-1.17785654E+002	
-3.56537019E+000	-1.17810038E+002	
-3.54465689E+000	-1.17824205E+002	
-3.52394358E+000	-1.17853782E+002	
-3.50323028E+000	-1.17897278E+002	
-3.48251697E+000	-1.17932571E+002	
-3.46180367E+000	-1.17956599E+002	
-3.44109036E+000	-1.17969881E+002	
-3.42037706E+000	-1.18000497E+002	
-3.39966375E+000	-1.18034792E+002	
-3.37895045E+000	-1.18081056E+002	
-3.35823714E+000	-1.18075611E+002	
-3.33752384E+000	-1.18079095E+002	
-3.31681053E+000	-1.18091502E+002	
-3.29609722E+000	-1.18056829E+002	
-3.27538392E+000	-1.18071614E+002	
-3.25467061E+000	-1.18075272E+002	
-3.23395731E+000	-1.18064359E+002	
-3.21324400E+000	-1.18087858E+002	
-3.19253070E+000	-1.18083430E+002	
-3.17181739E+000	-1.18056568E+002	
-3.15110409E+000	-1.18026332E+002	
-3.13039078E+000	-1.18011233E+002	
-3.10967748E+000	-1.18047391E+002	
-3.08896417E+000	-1.18036973E+002	
-3.06825087E+000	-1.18024579E+002	
-3.04753756E+000	-1.18038585E+002	
-3.02682426E+000	-1.18001947E+002	
-3.00611095E+000	-1.17929377E+002	
-2.98539764E+000	-1.17971187E+002	
-2.96468434E+000	-1.17933084E+002	
-2.94397103E+000	-1.17907563E+002	
-2.92325773E+000	-1.17868976E+002	
-2.90254442E+000	-1.17866559E+002	
-2.88183112E+000	-1.17876327E+002	
-2.86111781E+000	-1.17917297E+002	
-2.84040451E+000	-1.17955320E+002	
-2.81969120E+000	-1.17986567E+002	
-2.79897790E+000	-1.18050142E+002	
-2.77826459E+000	-1.18003159E+002	
-2.75755129E+000	-1.17978142E+002	
-2.73683798E+000	-1.17988127E+002	
-2.71612468E+000	-1.17943599E+002	
-2.69541137E+000	-1.17926478E+002	
-2.67469807E+000	-1.17988103E+002	
-2.65398476E+000	-1.18014171E+002	
-2.63327145E+000	-1.18009081E+002	
-2.61255815E+000	-1.17952677E+002	
-2.59184484E+000	-1.17954044E+002	
-2.57113154E+000	-1.17947202E+002	
-2.55041823E+000	-1.17948118E+002	
-2.52970493E+000	-1.18000385E+002	
-2.50899162E+000	-1.18070168E+002	
-2.48827832E+000	-1.18042958E+002	
-2.46756501E+000	-1.18042953E+002	
-2.44685171E+000	-1.18048749E+002	
-2.42613840E+000	-1.18070374E+002	
-2.40542510E+000	-1.18083524E+002	
-2.38471179E+000	-1.18064991E+002	
-2.36399849E+000	-1.18041047E+002	
-2.34328518E+000	-1.17992373E+002	
-2.32257187E+000	-1.17942102E+002	
-2.30185857E+000	-1.17868448E+002	
-2.28114526E+000	-1.17896542E+002	
-2.26043196E+000	-1.17974640E+002	
-2.23971865E+000	-1.17962113E+002	
-2.21900535E+000	-1.18016316E+002	
-2.19829204E+000	-1.18035302E+002	
-2.17757874E+000	-1.17994804E+002	
-2.15686543E+000	-1.17984695E+002	
-2.13615213E+000	-1.18039328E+002	
-2.11543882E+000	-1.18047190E+002	
-2.09472552E+000	-1.18061798E+002	
-2.07401221E+000	-1.18033979E+002	
-2.05329891E+000	-1.17985336E+002	
-2.03258560E+000	-1.17991988E+002	
-2.01187229E+000	-1.17984540E+002	
-1.99115899E+000	-1.17994168E+002	
-1.97044568E+000	-1.17928542E+002	
-1.94973238E+000	-1.17939653E+002	
-1.92901907E+000	-1.17923713E+002	
-1.90830577E+000	-1.17872718E+002	
-1.88759246E+000	-1.17872106E+002	
-1.86687916E+000	-1.17909910E+002	
-1.84616585E+000	-1.17879549E+002	
-1.82545255E+000	-1.17960679E+002	
-1.80473924E+000	-1.17974518E+002	
-1.78402594E+000	-1.18013296E+002	
-1.76331263E+000	-1.18011378E+002	
-1.74259933E+000	-1.17965737E+002	
-1.72188602E+000	-1.17964199E+002	
-1.70117272E+000	-1.18034339E+002	
-1.68045941E+000	-1.18059559E+002	
-1.65974610E+000	-1.18019507E+002	
-1.63903280E+000	-1.17977920E+002	
-1.61831949E+000	-1.18038150E+002	
-1.59760619E+000	-1.18049424E+002	
-1.57689288E+000	-1.18063289E+002	
-1.55617958E+000	-1.18121170E+002	
-1.53546627E+000	-1.18106634E+002	
-1.51475297E+000	-1.18113839E+002	
-1.49403966E+000	-1.18087768E+002	
-1.47332636E+000	-1.18140623E+002	
-1.45261305E+000	-1.18117737E+002	
-1.43189975E+000	-1.18120391E+002	
-1.41118644E+000	-1.18115793E+002	
-1.39047314E+000	-1.18142925E+002	
-1.36975983E+000	-1.18099366E+002	
-1.34904652E+000	-1.18100310E+002	
-1.32833322E+000	-1.18048918E+002	
-1.30761991E+000	-1.18001775E+002	
-1.28690661E+000	-1.18008351E+002	
-1.26619330E+000	-1.17998230E+002	
-1.24548000E+000	-1.18047519E+002	
-1.22476669E+000	-1.18068295E+002	
-1.20405339E+000	-1.17971470E+002	
-1.18334008E+000	-1.17961626E+002	
-1.16262678E+000	-1.18021736E+002	
-1.14191347E+000	-1.18054344E+002	
-1.12120017E+000	-1.18046928E+002	
-1.10048686E+000	-1.18020776E+002	
-1.07977356E+000	-1.18030737E+002	
-1.05906025E+000	-1.18065669E+002	
-1.03834694E+000	-1.18045422E+002	
-1.01763364E+000	-1.17983357E+002	
-9.96920334E-001	-1.17894362E+002	
-9.76207029E-001	-1.17854047E+002	
-9.55493724E-001	-1.17869983E+002	
-9.34780418E-001	-1.17878766E+002	
-9.14067113E-001	-1.17920238E+002	
-8.93353808E-001	-1.17899260E+002	
-8.72640502E-001	-1.17875513E+002	
-8.51927197E-001	-1.17904465E+002	
-8.31213892E-001	-1.17938718E+002	
-8.10500586E-001	-1.17999261E+002	
-7.89787281E-001	-1.18014932E+002	
-7.69073976E-001	-1.18025801E+002	
-7.48360671E-001	-1.18016457E+002	
-7.27647365E-001	-1.18008062E+002	
-7.06934060E-001	-1.18032908E+002	
-6.86220755E-001	-1.18056349E+002	
-6.65507449E-001	-1.18080971E+002	
-6.44794144E-001	-1.18073201E+002	
-6.24080839E-001	-1.18033347E+002	
-6.03367533E-001	-1.18032864E+002	
-5.82654228E-001	-1.18007467E+002	
-5.61940923E-001	-1.17956894E+002	
-5.41227617E-001	-1.17919557E+002	
-5.20514312E-001	-1.17948449E+002	
-4.99801007E-001	-1.18055868E+002	
-4.79087701E-001	-1.18134719E+002	
-4.58374396E-001	-1.18167549E+002	
-4.37661091E-001	-1.18133596E+002	
-4.16947785E-001	-1.18108295E+002	
-3.96234480E-001	-1.18110564E+002	
-3.75521175E-001	-1.18122155E+002	
-3.54807869E-001	-1.18138993E+002	
-3.34094564E-001	-1.18149977E+002	
-3.13381259E-001	-1.18165467E+002	
-2.92667954E-001	-1.18120661E+002	
-2.71954648E-001	-1.18012983E+002	
-2.51241343E-001	-8.64624592E+001	
-2.30528038E-001	-8.61968629E+001	
-2.09814732E-001	-8.61968275E+001	
-1.89101427E-001	-8.61968291E+001	
-1.68388122E-001	-8.61968224E+001	
-1.47674816E-001	-8.61968034E+001	
-1.26961511E-001	-8.61967682E+001	
-1.06248206E-001	-8.61967317E+001	
-8.55349003E-002	-8.61967582E+001	
-6.48215950E-002	-8.61967997E+001	
-4.41082897E-002	-8.61968711E+001	
-2.33949844E-002	-8.61969021E+001	
-2.68167905E-003	-8.61969206E+001	
1.80316263E-002	-8.61969118E+001	
3.87449316E-002	-8.61969235E+001	
5.94582369E-002	-8.61969747E+001	
8.01715422E-002	-8.61970094E+001	
1.00884848E-001	-8.61970376E+001	
1.21598153E-001	-8.61970847E+001	
1.42311458E-001	-8.61970974E+001	
1.63024763E-001	-8.61971039E+001	
1.83738069E-001	-8.61970851E+001	
2.04451374E-001	-8.61970868E+001	
2.25164679E-001	-8.61971325E+001	
2.45877985E-001	-9.30170313E+001	
2.66591290E-001	-1.18506653E+002	
2.87304595E-001	-1.18606559E+002	
3.08017901E-001	-1.18641277E+002	
3.28731206E-001	-1.18598103E+002	
3.49444511E-001	-1.18619886E+002	
3.70157817E-001	-1.18696868E+002	
3.90871122E-001	-1.18774563E+002	
4.11584427E-001	-1.18788434E+002	
4.32297733E-001	-1.18802364E+002	
4.53011038E-001	-1.18815755E+002	
4.73724343E-001	-1.18799309E+002	
4.94437649E-001	-1.18766479E+002	
5.15150954E-001	-1.18784555E+002	
5.35864259E-001	-1.18739035E+002	
5.56577565E-001	-1.18689618E+002	
5.77290870E-001	-1.18719169E+002	
5.98004175E-001	-1.18747444E+002	
6.18717481E-001	-1.18712360E+002	
6.39430786E-001	-1.18692055E+002	
6.60144091E-001	-1.18723687E+002	
6.80857396E-001	-1.18766558E+002	
7.01570702E-001	-1.18806696E+002	
7.22284007E-001	-1.18819436E+002	
7.42997312E-001	-1.18825658E+002	
7.63710618E-001	-1.18802520E+002	
7.84423923E-001	-1.18791749E+002	
8.05137228E-001	-1.18779946E+002	
8.25850534E-001	-1.18808046E+002	
8.46563839E-001	-1.18799668E+002	
8.67277144E-001	-1.18839923E+002	
8.87990450E-001	-1.18869139E+002	
9.08703755E-001	-1.18844471E+002	
9.29417060E-001	-1.18822321E+002	
9.50130366E-001	-1.18820922E+002	
9.70843671E-001	-1.18827211E+002	
9.91556976E-001	-1.18891663E+002	
1.01227028E+000	-1.18889690E+002	
1.03298359E+000	-1.18934928E+002	
1.05369689E+000	-1.19008626E+002	
1.07441020E+000	-1.18998027E+002	
1.09512350E+000	-1.18946415E+002	
1.11583681E+000	-1.18926660E+002	
1.13655011E+000	-1.18962194E+002	
1.15726342E+000	-1.18958120E+002	
1.17797672E+000	-1.18975399E+002	
1.19869003E+000	-1.18986006E+002	
1.21940333E+000	-1.19004511E+002	
1.24011664E+000	-1.19005763E+002	
1.26082995E+000	-1.18973087E+002	
1.28154325E+000	-1.19007018E+002	
1.30225656E+000	-1.19046744E+002	
1.32296986E+000	-1.19032463E+002	
1.34368317E+000	-1.19103959E+002	
1.36439647E+000	-1.19129716E+002	
1.38510978E+000	-1.19162560E+002	
1.40582308E+000	-1.19206987E+002	
1.42653639E+000	-1.19200287E+002	
1.44724969E+000	-1.19167523E+002	
1.46796300E+000	-1.19173498E+002	
1.48867630E+000	-1.19173181E+002	
1.50938961E+000	-1.19172104E+002	
1.53010291E+000	-1.19139339E+002	
1.55081622E+000	-1.19075589E+002	
1.57152953E+000	-1.19017849E+002	
1.59224283E+000	-1.18981491E+002	
1.61295614E+000	-1.18962792E+002	
1.63366944E+000	-1.18930847E+002	
1.65438275E+000	-1.18892169E+002	
1.67509605E+000	-1.18869884E+002	
1.69580936E+000	-1.18834958E+002	
1.71652266E+000	-1.18762020E+002	
1.73723597E+000	-1.18745601E+002	
1.75794927E+000	-1.18726480E+002	
1.77866258E+000	-1.18707275E+002	
1.79937588E+000	-1.18693722E+002	
1.82008919E+000	-1.18686517E+002	
1.84080249E+000	-1.18662597E+002	
