Time (ns)	Amplitude (dB)	
-1.00072081E+001	-1.20677515E+002	
-9.98649484E+000	-1.20348641E+002	
-9.96578154E+000	-1.19994411E+002	
-9.94506823E+000	-1.19730962E+002	
-9.92435493E+000	-1.19498778E+002	
-9.90364162E+000	-1.19254708E+002	
-9.88292832E+000	-1.19038853E+002	
-9.86221501E+000	-1.18825872E+002	
-9.84150171E+000	-1.18623048E+002	
-9.82078840E+000	-1.18444377E+002	
-9.80007509E+000	-1.18249057E+002	
-9.77936179E+000	-1.18051441E+002	
-9.75864848E+000	-1.17991544E+002	
-9.73793518E+000	-1.18004950E+002	
-9.71722187E+000	-1.18004157E+002	
-9.69650857E+000	-1.18000223E+002	
-9.67579526E+000	-1.18059483E+002	
-9.65508196E+000	-1.18045659E+002	
-9.63436865E+000	-1.17998884E+002	
-9.61365535E+000	-1.18001515E+002	
-9.59294204E+000	-1.18030192E+002	
-9.57222874E+000	-1.18053119E+002	
-9.55151543E+000	-1.18071558E+002	
-9.53080213E+000	-1.18065819E+002	
-9.51008882E+000	-1.18096424E+002	
-9.48937552E+000	-1.18119534E+002	
-9.46866221E+000	-1.18121456E+002	
-9.44794890E+000	-1.18091433E+002	
-9.42723560E+000	-1.18043460E+002	
-9.40652229E+000	-1.18040521E+002	
-9.38580899E+000	-1.18016059E+002	
-9.36509568E+000	-1.18006016E+002	
-9.34438238E+000	-1.17977417E+002	
-9.32366907E+000	-1.17949397E+002	
-9.30295577E+000	-1.17944526E+002	
-9.28224246E+000	-1.17957721E+002	
-9.26152916E+000	-1.17910002E+002	
-9.24081585E+000	-1.17853302E+002	
-9.22010255E+000	-1.17840012E+002	
-9.19938924E+000	-1.17881032E+002	
-9.17867594E+000	-1.17868855E+002	
-9.15796263E+000	-1.17869031E+002	
-9.13724932E+000	-1.17926116E+002	
-9.11653602E+000	-1.17928358E+002	
-9.09582271E+000	-1.17884560E+002	
-9.07510941E+000	-1.17890747E+002	
-9.05439610E+000	-1.17890112E+002	
-9.03368280E+000	-1.17769968E+002	
-9.01296949E+000	-1.17753802E+002	
-8.99225619E+000	-1.17752461E+002	
-8.97154288E+000	-1.17801682E+002	
-8.95082958E+000	-1.17821108E+002	
-8.93011627E+000	-1.17852051E+002	
-8.90940297E+000	-1.17877593E+002	
-8.88868966E+000	-1.17899711E+002	
-8.86797636E+000	-1.17889497E+002	
-8.84726305E+000	-1.17900777E+002	
-8.82654974E+000	-1.17887300E+002	
-8.80583644E+000	-1.17898881E+002	
-8.78512313E+000	-1.17903618E+002	
-8.76440983E+000	-1.17922733E+002	
-8.74369652E+000	-1.17983736E+002	
-8.72298322E+000	-1.18004927E+002	
-8.70226991E+000	-1.17936759E+002	
-8.68155661E+000	-1.17899052E+002	
-8.66084330E+000	-1.17930300E+002	
-8.64013000E+000	-1.17903708E+002	
-8.61941669E+000	-1.17865603E+002	
-8.59870339E+000	-1.17906761E+002	
-8.57799008E+000	-1.17908943E+002	
-8.55727678E+000	-1.17871315E+002	
-8.53656347E+000	-1.17985355E+002	
-8.51585017E+000	-1.18015550E+002	
-8.49513686E+000	-1.18022658E+002	
-8.47442355E+000	-1.18008371E+002	
-8.45371025E+000	-1.18036360E+002	
-8.43299694E+000	-1.18075697E+002	
-8.41228364E+000	-1.18037934E+002	
-8.39157033E+000	-1.18014212E+002	
-8.37085703E+000	-1.18065458E+002	
-8.35014372E+000	-1.18084786E+002	
-8.32943042E+000	-1.18106527E+002	
-8.30871711E+000	-1.18062123E+002	
-8.28800381E+000	-1.18093927E+002	
-8.26729050E+000	-1.18077110E+002	
-8.24657720E+000	-1.18064894E+002	
-8.22586389E+000	-1.18036889E+002	
-8.20515059E+000	-1.18079480E+002	
-8.18443728E+000	-1.18079430E+002	
-8.16372397E+000	-1.18066169E+002	
-8.14301067E+000	-1.18020498E+002	
-8.12229736E+000	-1.18039249E+002	
-8.10158406E+000	-1.18032339E+002	
-8.08087075E+000	-1.18026622E+002	
-8.06015745E+000	-1.18004925E+002	
-8.03944414E+000	-1.17950670E+002	
-8.01873084E+000	-1.17960784E+002	
-7.99801753E+000	-1.17943453E+002	
-7.97730423E+000	-1.17940954E+002	
-7.95659092E+000	-1.17912277E+002	
-7.93587762E+000	-1.17925892E+002	
-7.91516431E+000	-1.17959835E+002	
-7.89445101E+000	-1.17953424E+002	
-7.87373770E+000	-1.17932733E+002	
-7.85302439E+000	-1.17930967E+002	
-7.83231109E+000	-1.17906379E+002	
-7.81159778E+000	-1.17960553E+002	
-7.79088448E+000	-1.17990118E+002	
-7.77017117E+000	-1.18013224E+002	
-7.74945787E+000	-1.18036332E+002	
-7.72874456E+000	-1.18052556E+002	
-7.70803126E+000	-1.18015462E+002	
-7.68731795E+000	-1.18049289E+002	
-7.66660465E+000	-1.18046676E+002	
-7.64589134E+000	-1.18047683E+002	
-7.62517804E+000	-1.18025664E+002	
-7.60446473E+000	-1.17963320E+002	
-7.58375143E+000	-1.17978196E+002	
-7.56303812E+000	-1.18012292E+002	
-7.54232482E+000	-1.18079130E+002	
-7.52161151E+000	-1.18066598E+002	
-7.50089820E+000	-1.18083386E+002	
-7.48018490E+000	-1.18051653E+002	
-7.45947159E+000	-1.18088839E+002	
-7.43875829E+000	-1.18015236E+002	
-7.41804498E+000	-1.17926240E+002	
-7.39733168E+000	-1.17979089E+002	
-7.37661837E+000	-1.17992505E+002	
-7.35590507E+000	-1.17995464E+002	
-7.33519176E+000	-1.18019248E+002	
-7.31447846E+000	-1.18037676E+002	
-7.29376515E+000	-1.18006004E+002	
-7.27305185E+000	-1.17973035E+002	
-7.25233854E+000	-1.18000724E+002	
-7.23162524E+000	-1.18016027E+002	
-7.21091193E+000	-1.18010882E+002	
-7.19019862E+000	-1.18013202E+002	
-7.16948532E+000	-1.18055695E+002	
-7.14877201E+000	-1.18122366E+002	
-7.12805871E+000	-1.18177938E+002	
-7.10734540E+000	-1.18248290E+002	
-7.08663210E+000	-1.18280275E+002	
-7.06591879E+000	-1.18250908E+002	
-7.04520549E+000	-1.18233053E+002	
-7.02449218E+000	-1.18207259E+002	
-7.00377888E+000	-1.18173731E+002	
-6.98306557E+000	-1.18213953E+002	
-6.96235227E+000	-1.18175872E+002	
-6.94163896E+000	-1.18200492E+002	
-6.92092566E+000	-1.18277801E+002	
-6.90021235E+000	-1.18265448E+002	
-6.87949904E+000	-1.18230118E+002	
-6.85878574E+000	-1.18218788E+002	
-6.83807243E+000	-1.18239947E+002	
-6.81735913E+000	-1.18254205E+002	
-6.79664582E+000	-1.18216260E+002	
-6.77593252E+000	-1.18259581E+002	
-6.75521921E+000	-1.18213646E+002	
-6.73450591E+000	-1.18202173E+002	
-6.71379260E+000	-1.18176043E+002	
-6.69307930E+000	-1.18170735E+002	
-6.67236599E+000	-1.18126487E+002	
-6.65165269E+000	-1.18109894E+002	
-6.63093938E+000	-1.18130279E+002	
-6.61022608E+000	-1.18155870E+002	
-6.58951277E+000	-1.18148991E+002	
-6.56879947E+000	-1.18141889E+002	
-6.54808616E+000	-1.18134134E+002	
-6.52737285E+000	-1.18115630E+002	
-6.50665955E+000	-1.18138302E+002	
-6.48594624E+000	-1.18180994E+002	
-6.46523294E+000	-1.18227445E+002	
-6.44451963E+000	-1.18168306E+002	
-6.42380633E+000	-1.18128391E+002	
-6.40309302E+000	-1.18129968E+002	
-6.38237972E+000	-1.18099805E+002	
-6.36166641E+000	-1.18091948E+002	
-6.34095311E+000	-1.18092821E+002	
-6.32023980E+000	-1.18083130E+002	
-6.29952650E+000	-1.18090050E+002	
-6.27881319E+000	-1.18064364E+002	
-6.25809989E+000	-1.18073801E+002	
-6.23738658E+000	-1.18062837E+002	
-6.21667327E+000	-1.18041496E+002	
-6.19595997E+000	-1.18050611E+002	
-6.17524666E+000	-1.18049621E+002	
-6.15453336E+000	-1.18054622E+002	
-6.13382005E+000	-1.18032049E+002	
-6.11310675E+000	-1.18034266E+002	
-6.09239344E+000	-1.18031331E+002	
-6.07168014E+000	-1.17982946E+002	
-6.05096683E+000	-1.18047260E+002	
-6.03025353E+000	-1.18059977E+002	
-6.00954022E+000	-1.18052629E+002	
-5.98882692E+000	-1.17998342E+002	
-5.96811361E+000	-1.17991384E+002	
-5.94740031E+000	-1.18032308E+002	
-5.92668700E+000	-1.18063187E+002	
-5.90597369E+000	-1.18074578E+002	
-5.88526039E+000	-1.18128275E+002	
-5.86454708E+000	-1.18152759E+002	
-5.84383378E+000	-1.18116793E+002	
-5.82312047E+000	-1.18140230E+002	
-5.80240717E+000	-1.18112628E+002	
-5.78169386E+000	-1.18119888E+002	
-5.76098056E+000	-1.18118526E+002	
-5.74026725E+000	-1.18121047E+002	
-5.71955395E+000	-1.18177756E+002	
-5.69884064E+000	-1.18186110E+002	
-5.67812734E+000	-1.18214333E+002	
-5.65741403E+000	-1.18209354E+002	
-5.63670073E+000	-1.18210818E+002	
-5.61598742E+000	-1.18188892E+002	
-5.59527412E+000	-1.18152289E+002	
-5.57456081E+000	-1.18224774E+002	
-5.55384750E+000	-1.18139001E+002	
-5.53313420E+000	-1.18074257E+002	
-5.51242089E+000	-1.18084257E+002	
-5.49170759E+000	-1.18080792E+002	
-5.47099428E+000	-1.18071018E+002	
-5.45028098E+000	-1.18133875E+002	
-5.42956767E+000	-1.18180008E+002	
-5.40885437E+000	-1.18162763E+002	
-5.38814106E+000	-1.18144275E+002	
-5.36742776E+000	-1.18126379E+002	
-5.34671445E+000	-1.18158080E+002	
-5.32600115E+000	-1.18157115E+002	
-5.30528784E+000	-1.18188508E+002	
-5.28457454E+000	-1.18165876E+002	
-5.26386123E+000	-1.18160517E+002	
-5.24314792E+000	-1.18103262E+002	
-5.22243462E+000	-1.18062321E+002	
-5.20172131E+000	-1.18060596E+002	
-5.18100801E+000	-1.18009412E+002	
-5.16029470E+000	-1.17991018E+002	
-5.13958140E+000	-1.17953748E+002	
-5.11886809E+000	-1.17929797E+002	
-5.09815479E+000	-1.17937124E+002	
-5.07744148E+000	-1.17893959E+002	
-5.05672818E+000	-1.17959924E+002	
-5.03601487E+000	-1.17974084E+002	
-5.01530157E+000	-1.18006031E+002	
-4.99458826E+000	-1.18017838E+002	
-4.97387496E+000	-1.17964562E+002	
-4.95316165E+000	-1.17956737E+002	
-4.93244834E+000	-1.17917317E+002	
-4.91173504E+000	-1.17909967E+002	
-4.89102173E+000	-1.17911361E+002	
-4.87030843E+000	-1.17946573E+002	
-4.84959512E+000	-1.17929844E+002	
-4.82888182E+000	-1.17884016E+002	
-4.80816851E+000	-1.17860773E+002	
-4.78745521E+000	-1.17876228E+002	
-4.76674190E+000	-1.17904225E+002	
-4.74602860E+000	-1.17922759E+002	
-4.72531529E+000	-1.17969529E+002	
-4.70460199E+000	-1.17956299E+002	
-4.68388868E+000	-1.17998616E+002	
-4.66317538E+000	-1.17993455E+002	
-4.64246207E+000	-1.18026926E+002	
-4.62174877E+000	-1.18063620E+002	
-4.60103546E+000	-1.18105376E+002	
-4.58032215E+000	-1.18129750E+002	
-4.55960885E+000	-1.18100395E+002	
-4.53889554E+000	-1.18123899E+002	
-4.51818224E+000	-1.18052731E+002	
-4.49746893E+000	-1.18006924E+002	
-4.47675563E+000	-1.18054752E+002	
-4.45604232E+000	-1.18040860E+002	
-4.43532902E+000	-1.18034964E+002	
-4.41461571E+000	-1.18020958E+002	
-4.39390241E+000	-1.18038246E+002	
-4.37318910E+000	-1.18044758E+002	
-4.35247580E+000	-1.18020927E+002	
-4.33176249E+000	-1.18017603E+002	
-4.31104919E+000	-1.18014721E+002	
-4.29033588E+000	-1.18008900E+002	
-4.26962257E+000	-1.18005778E+002	
-4.24890927E+000	-1.18051139E+002	
-4.22819596E+000	-1.18067789E+002	
-4.20748266E+000	-1.18109193E+002	
-4.18676935E+000	-1.18065587E+002	
-4.16605605E+000	-1.18076644E+002	
-4.14534274E+000	-1.18100763E+002	
-4.12462944E+000	-1.18067464E+002	
-4.10391613E+000	-1.18057904E+002	
-4.08320283E+000	-1.18049631E+002	
-4.06248952E+000	-1.18043303E+002	
-4.04177622E+000	-1.18016051E+002	
-4.02106291E+000	-1.18057916E+002	
-4.00034961E+000	-1.18072600E+002	
-3.97963630E+000	-1.18040559E+002	
-3.95892299E+000	-1.18050515E+002	
-3.93820969E+000	-1.18029740E+002	
-3.91749638E+000	-1.18053397E+002	
-3.89678308E+000	-1.18020375E+002	
-3.87606977E+000	-1.17944846E+002	
-3.85535647E+000	-1.17949384E+002	
-3.83464316E+000	-1.17947547E+002	
-3.81392986E+000	-1.17938712E+002	
-3.79321655E+000	-1.17968490E+002	
-3.77250325E+000	-1.17896814E+002	
-3.75178994E+000	-1.17898170E+002	
-3.73107664E+000	-1.17906450E+002	
-3.71036333E+000	-1.17840805E+002	
-3.68965003E+000	-1.17869949E+002	
-3.66893672E+000	-1.17915706E+002	
-3.64822342E+000	-1.17878523E+002	
-3.62751011E+000	-1.17888184E+002	
-3.60679680E+000	-1.17886928E+002	
-3.58608350E+000	-1.17882151E+002	
-3.56537019E+000	-1.17907100E+002	
-3.54465689E+000	-1.17920407E+002	
-3.52394358E+000	-1.17945725E+002	
-3.50323028E+000	-1.17983461E+002	
-3.48251697E+000	-1.18013117E+002	
-3.46180367E+000	-1.18039384E+002	
-3.44109036E+000	-1.18053307E+002	
-3.42037706E+000	-1.18082250E+002	
-3.39966375E+000	-1.18115658E+002	
-3.37895045E+000	-1.18162824E+002	
-3.35823714E+000	-1.18159316E+002	
-3.33752384E+000	-1.18166264E+002	
-3.31681053E+000	-1.18180050E+002	
-3.29609722E+000	-1.18155768E+002	
-3.27538392E+000	-1.18174413E+002	
-3.25467061E+000	-1.18175143E+002	
-3.23395731E+000	-1.18156345E+002	
-3.21324400E+000	-1.18182801E+002	
-3.19253070E+000	-1.18180448E+002	
-3.17181739E+000	-1.18159596E+002	
-3.15110409E+000	-1.18134017E+002	
-3.13039078E+000	-1.18122871E+002	
-3.10967748E+000	-1.18159956E+002	
-3.08896417E+000	-1.18147094E+002	
-3.06825087E+000	-1.18136784E+002	
-3.04753756E+000	-1.18151894E+002	
-3.02682426E+000	-1.18121136E+002	
-3.00611095E+000	-1.18049489E+002	
-2.98539764E+000	-1.18086936E+002	
-2.96468434E+000	-1.18050591E+002	
-2.94397103E+000	-1.18026123E+002	
-2.92325773E+000	-1.17984752E+002	
-2.90254442E+000	-1.17983114E+002	
-2.88183112E+000	-1.17994873E+002	
-2.86111781E+000	-1.18037359E+002	
-2.84040451E+000	-1.18077388E+002	
-2.81969120E+000	-1.18111797E+002	
-2.79897790E+000	-1.18172001E+002	
-2.77826459E+000	-1.18130249E+002	
-2.75755129E+000	-1.18108090E+002	
-2.73683798E+000	-1.18122787E+002	
-2.71612468E+000	-1.18076732E+002	
-2.69541137E+000	-1.18056774E+002	
-2.67469807E+000	-1.18112977E+002	
-2.65398476E+000	-1.18135170E+002	
-2.63327145E+000	-1.18131616E+002	
-2.61255815E+000	-1.18073394E+002	
-2.59184484E+000	-1.18076850E+002	
-2.57113154E+000	-1.18069669E+002	
-2.55041823E+000	-1.18066680E+002	
-2.52970493E+000	-1.18113719E+002	
-2.50899162E+000	-1.18186753E+002	
-2.48827832E+000	-1.18170190E+002	
-2.46756501E+000	-1.18165463E+002	
-2.44685171E+000	-1.18166459E+002	
-2.42613840E+000	-1.18193922E+002	
-2.40542510E+000	-1.18205775E+002	
-2.38471179E+000	-1.18187083E+002	
-2.36399849E+000	-1.18169940E+002	
-2.34328518E+000	-1.18119703E+002	
-2.32257187E+000	-1.18064691E+002	
-2.30185857E+000	-1.17994703E+002	
-2.28114526E+000	-1.18016443E+002	
-2.26043196E+000	-1.18097421E+002	
-2.23971865E+000	-1.18086303E+002	
-2.21900535E+000	-1.18141766E+002	
-2.19829204E+000	-1.18164108E+002	
-2.17757874E+000	-1.18120199E+002	
-2.15686543E+000	-1.18106453E+002	
-2.13615213E+000	-1.18157415E+002	
-2.11543882E+000	-1.18164167E+002	
-2.09472552E+000	-1.18178507E+002	
-2.07401221E+000	-1.18147412E+002	
-2.05329891E+000	-1.18096213E+002	
-2.03258560E+000	-1.18106971E+002	
-2.01187229E+000	-1.18097999E+002	
-1.99115899E+000	-1.18098172E+002	
-1.97044568E+000	-1.18036074E+002	
-1.94973238E+000	-1.18049945E+002	
-1.92901907E+000	-1.18029447E+002	
-1.90830577E+000	-1.17984422E+002	
-1.88759246E+000	-1.17983214E+002	
-1.86687916E+000	-1.18018388E+002	
-1.84616585E+000	-1.17990936E+002	
-1.82545255E+000	-1.18072921E+002	
-1.80473924E+000	-1.18079294E+002	
-1.78402594E+000	-1.18113765E+002	
-1.76331263E+000	-1.18109365E+002	
-1.74259933E+000	-1.18061514E+002	
-1.72188602E+000	-1.18066790E+002	
-1.70117272E+000	-1.18143861E+002	
-1.68045941E+000	-1.18170629E+002	
-1.65974610E+000	-1.18127451E+002	
-1.63903280E+000	-1.18095062E+002	
-1.61831949E+000	-1.18159343E+002	
-1.59760619E+000	-1.18171999E+002	
-1.57689288E+000	-1.18186097E+002	
-1.55617958E+000	-1.18247146E+002	
-1.53546627E+000	-1.18229045E+002	
-1.51475297E+000	-1.18230296E+002	
-1.49403966E+000	-1.18204255E+002	
-1.47332636E+000	-1.18254395E+002	
-1.45261305E+000	-1.18223647E+002	
-1.43189975E+000	-1.18224214E+002	
-1.41118644E+000	-1.18218701E+002	
-1.39047314E+000	-1.18246876E+002	
-1.36975983E+000	-1.18202908E+002	
-1.34904652E+000	-1.18201972E+002	
-1.32833322E+000	-1.18156447E+002	
-1.30761991E+000	-1.18111429E+002	
-1.28690661E+000	-1.18122009E+002	
-1.26619330E+000	-1.18112635E+002	
-1.24548000E+000	-1.18161492E+002	
-1.22476669E+000	-1.18178521E+002	
-1.20405339E+000	-1.18073988E+002	
-1.18334008E+000	-1.18065282E+002	
-1.16262678E+000	-1.18135808E+002	
-1.14191347E+000	-1.18161725E+002	
-1.12120017E+000	-1.18149800E+002	
-1.10048686E+000	-1.18118414E+002	
-1.07977356E+000	-1.18123930E+002	
-1.05906025E+000	-1.18163646E+002	
-1.03834694E+000	-1.18145862E+002	
-1.01763364E+000	-1.18080553E+002	
-9.96920334E-001	-1.17996900E+002	
-9.76207029E-001	-1.17957297E+002	
-9.55493724E-001	-1.17975496E+002	
-9.34780418E-001	-1.17989009E+002	
-9.14067113E-001	-1.18032359E+002	
-8.93353808E-001	-1.18010962E+002	
-8.72640502E-001	-1.17986415E+002	
-8.51927197E-001	-1.18014938E+002	
-8.31213892E-001	-1.18044115E+002	
-8.10500586E-001	-1.18106018E+002	
-7.89787281E-001	-1.18124138E+002	
-7.69073976E-001	-1.18136227E+002	
-7.48360671E-001	-1.18126146E+002	
-7.27647365E-001	-1.18117591E+002	
-7.06934060E-001	-1.18145026E+002	
-6.86220755E-001	-1.18164534E+002	
-6.65507449E-001	-1.18188945E+002	
-6.44794144E-001	-1.18182827E+002	
-6.24080839E-001	-1.18143463E+002	
-6.03367533E-001	-1.18142291E+002	
-5.82654228E-001	-1.18120518E+002	
-5.61940923E-001	-1.18066950E+002	
-5.41227617E-001	-1.18026980E+002	
-5.20514312E-001	-1.18060736E+002	
-4.99801007E-001	-1.18167343E+002	
-4.79087701E-001	-1.18239613E+002	
-4.58374396E-001	-1.18269153E+002	
-4.37661091E-001	-1.18236640E+002	
-4.16947785E-001	-1.18215311E+002	
-3.96234480E-001	-1.18220876E+002	
-3.75521175E-001	-1.18231843E+002	
-3.54807869E-001	-1.18241345E+002	
-3.34094564E-001	-1.18243641E+002	
-3.13381259E-001	-1.18248231E+002	
-2.92667954E-001	-1.18061721E+002	
-2.71954648E-001	-1.17536940E+002	
-2.51241343E-001	-8.59661980E+001	
-2.30528038E-001	-8.56284704E+001	
-2.09814732E-001	-8.56283430E+001	
-1.89101427E-001	-8.56283410E+001	
-1.68388122E-001	-8.56283352E+001	
-1.47674816E-001	-8.56283127E+001	
-1.26961511E-001	-8.56282487E+001	
-1.06248206E-001	-8.56282045E+001	
-8.55349003E-002	-8.56282259E+001	
-6.48215950E-002	-8.56282581E+001	
-4.41082897E-002	-8.56283160E+001	
-2.33949844E-002	-8.56283449E+001	
-2.68167905E-003	-8.56283643E+001	
1.80316263E-002	-8.56283587E+001	
3.87449316E-002	-8.56283697E+001	
5.94582369E-002	-8.56284111E+001	
8.01715422E-002	-8.56284409E+001	
1.00884848E-001	-8.56284625E+001	
1.21598153E-001	-8.56285088E+001	
1.42311458E-001	-8.56285224E+001	
1.63024763E-001	-8.56285369E+001	
1.83738069E-001	-8.56285282E+001	
2.04451374E-001	-8.56285756E+001	
2.25164679E-001	-8.56288870E+001	
2.45877985E-001	-9.21376228E+001	
2.66591290E-001	-1.18280668E+002	
2.87304595E-001	-1.18621116E+002	
3.08017901E-001	-1.18665856E+002	
3.28731206E-001	-1.18626486E+002	
3.49444511E-001	-1.18649749E+002	
3.70157817E-001	-1.18786377E+002	
3.90871122E-001	-1.18902924E+002	
4.11584427E-001	-1.18929253E+002	
4.32297733E-001	-1.18957235E+002	
4.53011038E-001	-1.18979270E+002	
4.73724343E-001	-1.18962849E+002	
4.94437649E-001	-1.18924906E+002	
5.15150954E-001	-1.18944396E+002	
5.35864259E-001	-1.18908653E+002	
5.56577565E-001	-1.18863882E+002	
5.77290870E-001	-1.18885515E+002	
5.98004175E-001	-1.18917274E+002	
6.18717481E-001	-1.18876722E+002	
6.39430786E-001	-1.18855250E+002	
6.60144091E-001	-1.18876186E+002	
6.80857396E-001	-1.18908550E+002	
7.01570702E-001	-1.18945425E+002	
7.22284007E-001	-1.18965368E+002	
7.42997312E-001	-1.18969064E+002	
7.63710618E-001	-1.18945612E+002	
7.84423923E-001	-1.18927141E+002	
8.05137228E-001	-1.18924837E+002	
8.25850534E-001	-1.18956673E+002	
8.46563839E-001	-1.18952946E+002	
8.67277144E-001	-1.18993951E+002	
8.87990450E-001	-1.19030946E+002	
9.08703755E-001	-1.19007651E+002	
9.29417060E-001	-1.18974676E+002	
9.50130366E-001	-1.18975462E+002	
9.70843671E-001	-1.18976744E+002	
9.91556976E-001	-1.19044502E+002	
1.01227028E+000	-1.19045988E+002	
1.03298359E+000	-1.19082325E+002	
1.05369689E+000	-1.19153195E+002	
1.07441020E+000	-1.19145882E+002	
1.09512350E+000	-1.19090717E+002	
1.11583681E+000	-1.19059386E+002	
1.13655011E+000	-1.19094598E+002	
1.15726342E+000	-1.19089320E+002	
1.17797672E+000	-1.19111193E+002	
1.19869003E+000	-1.19120485E+002	
1.21940333E+000	-1.19134958E+002	
1.24011664E+000	-1.19130982E+002	
1.26082995E+000	-1.19094685E+002	
1.28154325E+000	-1.19124904E+002	
1.30225656E+000	-1.19156609E+002	
1.32296986E+000	-1.19139065E+002	
1.34368317E+000	-1.19208258E+002	
1.36439647E+000	-1.19243380E+002	
1.38510978E+000	-1.19275808E+002	
1.40582308E+000	-1.19314340E+002	
1.42653639E+000	-1.19316430E+002	
1.44724969E+000	-1.19280435E+002	
1.46796300E+000	-1.19281477E+002	
1.48867630E+000	-1.19269211E+002	
1.50938961E+000	-1.19258057E+002	
1.53010291E+000	-1.19225659E+002	
1.55081622E+000	-1.19161835E+002	
1.57152953E+000	-1.19109114E+002	
1.59224283E+000	-1.19074642E+002	
1.61295614E+000	-1.19059487E+002	
1.63366944E+000	-1.19019382E+002	
1.65438275E+000	-1.18980533E+002	
1.67509605E+000	-1.18955644E+002	
1.69580936E+000	-1.18923619E+002	
1.71652266E+000	-1.18853427E+002	
1.73723597E+000	-1.18844116E+002	
1.75794927E+000	-1.18830418E+002	
1.77866258E+000	-1.18812838E+002	
1.79937588E+000	-1.18796029E+002	
1.82008919E+000	-1.18789733E+002	
1.84080249E+000	-1.18765617E+002	
