Acquired on 8/13/2021 at 11:48:31
Calibrated on 8/13/2021 at 11:06:07
Device Descriptor:  [none]
Scan Range (nm):  1539.624  --  1560.517
Measurement Type:  Reflection
Group Index:  1.500
Gain:  24 dB
Domain:  Time
Spatial Resolution (mm):  50.000000
Frequency domain window was applied to measurement data.
Number of Data Points (in this file):  16384
NOTE: Data stored in this file is decimated by a factor of 64.

Time (ns)	Amplitude (dB)	
-1.00072081E+001	-1.20580297E+002	
-9.98649484E+000	-1.20253260E+002	
-9.96578154E+000	-1.19898053E+002	
-9.94506823E+000	-1.19636786E+002	
-9.92435493E+000	-1.19405405E+002	
-9.90364162E+000	-1.19160983E+002	
-9.88292832E+000	-1.18947295E+002	
-9.86221501E+000	-1.18740238E+002	
-9.84150171E+000	-1.18543246E+002	
-9.82078840E+000	-1.18363789E+002	
-9.80007509E+000	-1.18162473E+002	
-9.77936179E+000	-1.17963061E+002	
-9.75864848E+000	-1.17906254E+002	
-9.73793518E+000	-1.17921360E+002	
-9.71722187E+000	-1.17915413E+002	
-9.69650857E+000	-1.17914017E+002	
-9.67579526E+000	-1.17971882E+002	
-9.65508196E+000	-1.17952270E+002	
-9.63436865E+000	-1.17900635E+002	
-9.61365535E+000	-1.17905073E+002	
-9.59294204E+000	-1.17936207E+002	
-9.57222874E+000	-1.17961625E+002	
-9.55151543E+000	-1.17977092E+002	
-9.53080213E+000	-1.17972138E+002	
-9.51008882E+000	-1.18003167E+002	
-9.48937552E+000	-1.18029522E+002	
-9.46866221E+000	-1.18027510E+002	
-9.44794890E+000	-1.17995857E+002	
-9.42723560E+000	-1.17951655E+002	
-9.40652229E+000	-1.17952694E+002	
-9.38580899E+000	-1.17928069E+002	
-9.36509568E+000	-1.17918703E+002	
-9.34438238E+000	-1.17882464E+002	
-9.32366907E+000	-1.17851875E+002	
-9.30295577E+000	-1.17849852E+002	
-9.28224246E+000	-1.17867075E+002	
-9.26152916E+000	-1.17819509E+002	
-9.24081585E+000	-1.17762078E+002	
-9.22010255E+000	-1.17752898E+002	
-9.19938924E+000	-1.17790134E+002	
-9.17867594E+000	-1.17775582E+002	
-9.15796263E+000	-1.17780595E+002	
-9.13724932E+000	-1.17842442E+002	
-9.11653602E+000	-1.17844073E+002	
-9.09582271E+000	-1.17796553E+002	
-9.07510941E+000	-1.17804741E+002	
-9.05439610E+000	-1.17806480E+002	
-9.03368280E+000	-1.17677107E+002	
-9.01296949E+000	-1.17663332E+002	
-8.99225619E+000	-1.17664971E+002	
-8.97154288E+000	-1.17718158E+002	
-8.95082958E+000	-1.17739796E+002	
-8.93011627E+000	-1.17767121E+002	
-8.90940297E+000	-1.17784340E+002	
-8.88868966E+000	-1.17811298E+002	
-8.86797636E+000	-1.17804450E+002	
-8.84726305E+000	-1.17820206E+002	
-8.82654974E+000	-1.17808937E+002	
-8.80583644E+000	-1.17821392E+002	
-8.78512313E+000	-1.17824959E+002	
-8.76440983E+000	-1.17844492E+002	
-8.74369652E+000	-1.17905644E+002	
-8.72298322E+000	-1.17927568E+002	
-8.70226991E+000	-1.17863829E+002	
-8.68155661E+000	-1.17834461E+002	
-8.66084330E+000	-1.17867719E+002	
-8.64013000E+000	-1.17835418E+002	
-8.61941669E+000	-1.17797763E+002	
-8.59870339E+000	-1.17842120E+002	
-8.57799008E+000	-1.17840440E+002	
-8.55727678E+000	-1.17803424E+002	
-8.53656347E+000	-1.17930144E+002	
-8.51585017E+000	-1.17957311E+002	
-8.49513686E+000	-1.17960290E+002	
-8.47442355E+000	-1.17942115E+002	
-8.45371025E+000	-1.17974517E+002	
-8.43299694E+000	-1.18014084E+002	
-8.41228364E+000	-1.17981258E+002	
-8.39157033E+000	-1.17953853E+002	
-8.37085703E+000	-1.17998364E+002	
-8.35014372E+000	-1.18012812E+002	
-8.32943042E+000	-1.18032729E+002	
-8.30871711E+000	-1.17986704E+002	
-8.28800381E+000	-1.18023350E+002	
-8.26729050E+000	-1.18005653E+002	
-8.24657720E+000	-1.17997070E+002	
-8.22586389E+000	-1.17974337E+002	
-8.20515059E+000	-1.18019575E+002	
-8.18443728E+000	-1.18012645E+002	
-8.16372397E+000	-1.17991696E+002	
-8.14301067E+000	-1.17944323E+002	
-8.12229736E+000	-1.17958313E+002	
-8.10158406E+000	-1.17954363E+002	
-8.08087075E+000	-1.17952570E+002	
-8.06015745E+000	-1.17930685E+002	
-8.03944414E+000	-1.17871585E+002	
-8.01873084E+000	-1.17882155E+002	
-7.99801753E+000	-1.17863198E+002	
-7.97730423E+000	-1.17858890E+002	
-7.95659092E+000	-1.17819234E+002	
-7.93587762E+000	-1.17824604E+002	
-7.91516431E+000	-1.17859132E+002	
-7.89445101E+000	-1.17856162E+002	
-7.87373770E+000	-1.17829536E+002	
-7.85302439E+000	-1.17822627E+002	
-7.83231109E+000	-1.17804164E+002	
-7.81159778E+000	-1.17860980E+002	
-7.79088448E+000	-1.17884071E+002	
-7.77017117E+000	-1.17903191E+002	
-7.74945787E+000	-1.17913683E+002	
-7.72874456E+000	-1.17926286E+002	
-7.70803126E+000	-1.17882033E+002	
-7.68731795E+000	-1.17916209E+002	
-7.66660465E+000	-1.17907965E+002	
-7.64589134E+000	-1.17906270E+002	
-7.62517804E+000	-1.17886999E+002	
-7.60446473E+000	-1.17819224E+002	
-7.58375143E+000	-1.17833053E+002	
-7.56303812E+000	-1.17864563E+002	
-7.54232482E+000	-1.17928189E+002	
-7.52161151E+000	-1.17919970E+002	
-7.50089820E+000	-1.17935698E+002	
-7.48018490E+000	-1.17906466E+002	
-7.45947159E+000	-1.17952958E+002	
-7.43875829E+000	-1.17886239E+002	
-7.41804498E+000	-1.17806628E+002	
-7.39733168E+000	-1.17857761E+002	
-7.37661837E+000	-1.17873251E+002	
-7.35590507E+000	-1.17885820E+002	
-7.33519176E+000	-1.17903625E+002	
-7.31447846E+000	-1.17919730E+002	
-7.29376515E+000	-1.17896307E+002	
-7.27305185E+000	-1.17865469E+002	
-7.25233854E+000	-1.17900822E+002	
-7.23162524E+000	-1.17915487E+002	
-7.21091193E+000	-1.17913928E+002	
-7.19019862E+000	-1.17918045E+002	
-7.16948532E+000	-1.17973823E+002	
-7.14877201E+000	-1.18048905E+002	
-7.12805871E+000	-1.18106939E+002	
-7.10734540E+000	-1.18186570E+002	
-7.08663210E+000	-1.18221235E+002	
-7.06591879E+000	-1.18196919E+002	
-7.04520549E+000	-1.18183248E+002	
-7.02449218E+000	-1.18162022E+002	
-7.00377888E+000	-1.18135837E+002	
-6.98306557E+000	-1.18180317E+002	
-6.96235227E+000	-1.18139495E+002	
-6.94163896E+000	-1.18166467E+002	
-6.92092566E+000	-1.18236984E+002	
-6.90021235E+000	-1.18223577E+002	
-6.87949904E+000	-1.18192273E+002	
-6.85878574E+000	-1.18169015E+002	
-6.83807243E+000	-1.18189836E+002	
-6.81735913E+000	-1.18201538E+002	
-6.79664582E+000	-1.18160312E+002	
-6.77593252E+000	-1.18201498E+002	
-6.75521921E+000	-1.18153779E+002	
-6.73450591E+000	-1.18136928E+002	
-6.71379260E+000	-1.18106107E+002	
-6.69307930E+000	-1.18101958E+002	
-6.67236599E+000	-1.18051865E+002	
-6.65165269E+000	-1.18030390E+002	
-6.63093938E+000	-1.18054391E+002	
-6.61022608E+000	-1.18075733E+002	
-6.58951277E+000	-1.18067457E+002	
-6.56879947E+000	-1.18062089E+002	
-6.54808616E+000	-1.18051164E+002	
-6.52737285E+000	-1.18025288E+002	
-6.50665955E+000	-1.18040331E+002	
-6.48594624E+000	-1.18082063E+002	
-6.46523294E+000	-1.18124192E+002	
-6.44451963E+000	-1.18061384E+002	
-6.42380633E+000	-1.18020696E+002	
-6.40309302E+000	-1.18022242E+002	
-6.38237972E+000	-1.17993227E+002	
-6.36166641E+000	-1.17997957E+002	
-6.34095311E+000	-1.18002592E+002	
-6.32023980E+000	-1.17998637E+002	
-6.29952650E+000	-1.18003318E+002	
-6.27881319E+000	-1.17975346E+002	
-6.25809989E+000	-1.17989964E+002	
-6.23738658E+000	-1.17985945E+002	
-6.21667327E+000	-1.17969270E+002	
-6.19595997E+000	-1.17975241E+002	
-6.17524666E+000	-1.17967807E+002	
-6.15453336E+000	-1.17964728E+002	
-6.13382005E+000	-1.17940754E+002	
-6.11310675E+000	-1.17937110E+002	
-6.09239344E+000	-1.17934165E+002	
-6.07168014E+000	-1.17880252E+002	
-6.05096683E+000	-1.17944871E+002	
-6.03025353E+000	-1.17967152E+002	
-6.00954022E+000	-1.17955392E+002	
-5.98882692E+000	-1.17902443E+002	
-5.96811361E+000	-1.17909670E+002	
-5.94740031E+000	-1.17968717E+002	
-5.92668700E+000	-1.18007500E+002	
-5.90597369E+000	-1.18018789E+002	
-5.88526039E+000	-1.18074349E+002	
-5.86454708E+000	-1.18096992E+002	
-5.84383378E+000	-1.18059112E+002	
-5.82312047E+000	-1.18081765E+002	
-5.80240717E+000	-1.18051478E+002	
-5.78169386E+000	-1.18068592E+002	
-5.76098056E+000	-1.18069545E+002	
-5.74026725E+000	-1.18063820E+002	
-5.71955395E+000	-1.18105152E+002	
-5.69884064E+000	-1.18113735E+002	
-5.67812734E+000	-1.18149958E+002	
-5.65741403E+000	-1.18146965E+002	
-5.63670073E+000	-1.18154818E+002	
-5.61598742E+000	-1.18139075E+002	
-5.59527412E+000	-1.18113568E+002	
-5.57456081E+000	-1.18195304E+002	
-5.55384750E+000	-1.18118661E+002	
-5.53313420E+000	-1.18040989E+002	
-5.51242089E+000	-1.18057652E+002	
-5.49170759E+000	-1.18054678E+002	
-5.47099428E+000	-1.18030351E+002	
-5.45028098E+000	-1.18070059E+002	
-5.42956767E+000	-1.18110355E+002	
-5.40885437E+000	-1.18097565E+002	
-5.38814106E+000	-1.18081090E+002	
-5.36742776E+000	-1.18048828E+002	
-5.34671445E+000	-1.18087851E+002	
-5.32600115E+000	-1.18074470E+002	
-5.30528784E+000	-1.18099326E+002	
-5.28457454E+000	-1.18070090E+002	
-5.26386123E+000	-1.18058898E+002	
-5.24314792E+000	-1.18007489E+002	
-5.22243462E+000	-1.17985963E+002	
-5.20172131E+000	-1.17986578E+002	
-5.18100801E+000	-1.17933150E+002	
-5.16029470E+000	-1.17928520E+002	
-5.13958140E+000	-1.17886257E+002	
-5.11886809E+000	-1.17858610E+002	
-5.09815479E+000	-1.17855158E+002	
-5.07744148E+000	-1.17809055E+002	
-5.05672818E+000	-1.17865385E+002	
-5.03601487E+000	-1.17879751E+002	
-5.01530157E+000	-1.17905415E+002	
-4.99458826E+000	-1.17915408E+002	
-4.97387496E+000	-1.17866767E+002	
-4.95316165E+000	-1.17866492E+002	
-4.93244834E+000	-1.17830553E+002	
-4.91173504E+000	-1.17816918E+002	
-4.89102173E+000	-1.17811334E+002	
-4.87030843E+000	-1.17852036E+002	
-4.84959512E+000	-1.17836643E+002	
-4.82888182E+000	-1.17805226E+002	
-4.80816851E+000	-1.17794667E+002	
-4.78745521E+000	-1.17814601E+002	
-4.76674190E+000	-1.17845192E+002	
-4.74602860E+000	-1.17862035E+002	
-4.72531529E+000	-1.17903114E+002	
-4.70460199E+000	-1.17890474E+002	
-4.68388868E+000	-1.17938195E+002	
-4.66317538E+000	-1.17929313E+002	
-4.64246207E+000	-1.17964816E+002	
-4.62174877E+000	-1.18007563E+002	
-4.60103546E+000	-1.18052595E+002	
-4.58032215E+000	-1.18075151E+002	
-4.55960885E+000	-1.18041701E+002	
-4.53889554E+000	-1.18078251E+002	
-4.51818224E+000	-1.18010177E+002	
-4.49746893E+000	-1.17969791E+002	
-4.47675563E+000	-1.18019845E+002	
-4.45604232E+000	-1.18008181E+002	
-4.43532902E+000	-1.18001346E+002	
-4.41461571E+000	-1.17985737E+002	
-4.39390241E+000	-1.18004943E+002	
-4.37318910E+000	-1.18007220E+002	
-4.35247580E+000	-1.17978365E+002	
-4.33176249E+000	-1.17966444E+002	
-4.31104919E+000	-1.17961381E+002	
-4.29033588E+000	-1.17957979E+002	
-4.26962257E+000	-1.17953020E+002	
-4.24890927E+000	-1.17999520E+002	
-4.22819596E+000	-1.18020352E+002	
-4.20748266E+000	-1.18069010E+002	
-4.18676935E+000	-1.18024562E+002	
-4.16605605E+000	-1.18039899E+002	
-4.14534274E+000	-1.18060708E+002	
-4.12462944E+000	-1.18023237E+002	
-4.10391613E+000	-1.18008399E+002	
-4.08320283E+000	-1.17998926E+002	
-4.06248952E+000	-1.17990921E+002	
-4.04177622E+000	-1.17955308E+002	
-4.02106291E+000	-1.17991326E+002	
-4.00034961E+000	-1.17995749E+002	
-3.97963630E+000	-1.17963979E+002	
-3.95892299E+000	-1.17974693E+002	
-3.93820969E+000	-1.17955865E+002	
-3.91749638E+000	-1.17977021E+002	
-3.89678308E+000	-1.17942469E+002	
-3.87606977E+000	-1.17865729E+002	
-3.85535647E+000	-1.17865640E+002	
-3.83464316E+000	-1.17859123E+002	
-3.81392986E+000	-1.17857187E+002	
-3.79321655E+000	-1.17883948E+002	
-3.77250325E+000	-1.17815640E+002	
-3.75178994E+000	-1.17812809E+002	
-3.73107664E+000	-1.17818941E+002	
-3.71036333E+000	-1.17754870E+002	
-3.68965003E+000	-1.17778740E+002	
-3.66893672E+000	-1.17819478E+002	
-3.64822342E+000	-1.17782208E+002	
-3.62751011E+000	-1.17793972E+002	
-3.60679680E+000	-1.17795118E+002	
-3.58608350E+000	-1.17793938E+002	
-3.56537019E+000	-1.17820914E+002	
-3.54465689E+000	-1.17836256E+002	
-3.52394358E+000	-1.17868734E+002	
-3.50323028E+000	-1.17915696E+002	
-3.48251697E+000	-1.17946221E+002	
-3.46180367E+000	-1.17966645E+002	
-3.44109036E+000	-1.17979519E+002	
-3.42037706E+000	-1.18014401E+002	
-3.39966375E+000	-1.18047370E+002	
-3.37895045E+000	-1.18099079E+002	
-3.35823714E+000	-1.18101368E+002	
-3.33752384E+000	-1.18114112E+002	
-3.31681053E+000	-1.18124311E+002	
-3.29609722E+000	-1.18092545E+002	
-3.27538392E+000	-1.18110822E+002	
-3.25467061E+000	-1.18123261E+002	
-3.23395731E+000	-1.18106747E+002	
-3.21324400E+000	-1.18126207E+002	
-3.19253070E+000	-1.18125021E+002	
-3.17181739E+000	-1.18099153E+002	
-3.15110409E+000	-1.18070392E+002	
-3.13039078E+000	-1.18056627E+002	
-3.10967748E+000	-1.18091067E+002	
-3.08896417E+000	-1.18075079E+002	
-3.06825087E+000	-1.18060613E+002	
-3.04753756E+000	-1.18073757E+002	
-3.02682426E+000	-1.18035410E+002	
-3.00611095E+000	-1.17958786E+002	
-2.98539764E+000	-1.17996926E+002	
-2.96468434E+000	-1.17962058E+002	
-2.94397103E+000	-1.17939034E+002	
-2.92325773E+000	-1.17896677E+002	
-2.90254442E+000	-1.17896058E+002	
-2.88183112E+000	-1.17910698E+002	
-2.86111781E+000	-1.17954986E+002	
-2.84040451E+000	-1.17996452E+002	
-2.81969120E+000	-1.18029952E+002	
-2.79897790E+000	-1.18093071E+002	
-2.77826459E+000	-1.18050284E+002	
-2.75755129E+000	-1.18020362E+002	
-2.73683798E+000	-1.18033657E+002	
-2.71612468E+000	-1.17990459E+002	
-2.69541137E+000	-1.17975644E+002	
-2.67469807E+000	-1.18034468E+002	
-2.65398476E+000	-1.18060742E+002	
-2.63327145E+000	-1.18061096E+002	
-2.61255815E+000	-1.18008382E+002	
-2.59184484E+000	-1.18010718E+002	
-2.57113154E+000	-1.18008990E+002	
-2.55041823E+000	-1.18009292E+002	
-2.52970493E+000	-1.18065886E+002	
-2.50899162E+000	-1.18137911E+002	
-2.48827832E+000	-1.18116371E+002	
-2.46756501E+000	-1.18113730E+002	
-2.44685171E+000	-1.18111717E+002	
-2.42613840E+000	-1.18138118E+002	
-2.40542510E+000	-1.18149481E+002	
-2.38471179E+000	-1.18129156E+002	
-2.36399849E+000	-1.18105266E+002	
-2.34328518E+000	-1.18058262E+002	
-2.32257187E+000	-1.18007345E+002	
-2.30185857E+000	-1.17933803E+002	
-2.28114526E+000	-1.17957423E+002	
-2.26043196E+000	-1.18035867E+002	
-2.23971865E+000	-1.18021392E+002	
-2.21900535E+000	-1.18070741E+002	
-2.19829204E+000	-1.18087174E+002	
-2.17757874E+000	-1.18045543E+002	
-2.15686543E+000	-1.18034073E+002	
-2.13615213E+000	-1.18085522E+002	
-2.11543882E+000	-1.18089202E+002	
-2.09472552E+000	-1.18104470E+002	
-2.07401221E+000	-1.18072991E+002	
-2.05329891E+000	-1.18021670E+002	
-2.03258560E+000	-1.18030051E+002	
-2.01187229E+000	-1.18023255E+002	
-1.99115899E+000	-1.18026534E+002	
-1.97044568E+000	-1.17961185E+002	
-1.94973238E+000	-1.17973547E+002	
-1.92901907E+000	-1.17952179E+002	
-1.90830577E+000	-1.17902266E+002	
-1.88759246E+000	-1.17898650E+002	
-1.86687916E+000	-1.17933635E+002	
-1.84616585E+000	-1.17895896E+002	
-1.82545255E+000	-1.17971299E+002	
-1.80473924E+000	-1.17983010E+002	
-1.78402594E+000	-1.18020992E+002	
-1.76331263E+000	-1.18019565E+002	
-1.74259933E+000	-1.17973119E+002	
-1.72188602E+000	-1.17974739E+002	
-1.70117272E+000	-1.18049966E+002	
-1.68045941E+000	-1.18074028E+002	
-1.65974610E+000	-1.18034400E+002	
-1.63903280E+000	-1.17995473E+002	
-1.61831949E+000	-1.18054891E+002	
-1.59760619E+000	-1.18064763E+002	
-1.57689288E+000	-1.18077366E+002	
-1.55617958E+000	-1.18136420E+002	
-1.53546627E+000	-1.18119275E+002	
-1.51475297E+000	-1.18121867E+002	
-1.49403966E+000	-1.18096050E+002	
-1.47332636E+000	-1.18144790E+002	
-1.45261305E+000	-1.18115493E+002	
-1.43189975E+000	-1.18110286E+002	
-1.41118644E+000	-1.18106200E+002	
-1.39047314E+000	-1.18132983E+002	
-1.36975983E+000	-1.18095457E+002	
-1.34904652E+000	-1.18104729E+002	
-1.32833322E+000	-1.18060791E+002	
-1.30761991E+000	-1.18012859E+002	
-1.28690661E+000	-1.18018518E+002	
-1.26619330E+000	-1.18012787E+002	
-1.24548000E+000	-1.18063571E+002	
-1.22476669E+000	-1.18079838E+002	
-1.20405339E+000	-1.17978588E+002	
-1.18334008E+000	-1.17969025E+002	
-1.16262678E+000	-1.18035121E+002	
-1.14191347E+000	-1.18063694E+002	
-1.12120017E+000	-1.18056309E+002	
-1.10048686E+000	-1.18031666E+002	
-1.07977356E+000	-1.18037343E+002	
-1.05906025E+000	-1.18069814E+002	
-1.03834694E+000	-1.18051692E+002	
-1.01763364E+000	-1.17986020E+002	
-9.96920334E-001	-1.17898804E+002	
-9.76207029E-001	-1.17864171E+002	
-9.55493724E-001	-1.17887381E+002	
-9.34780418E-001	-1.17908507E+002	
-9.14067113E-001	-1.17951401E+002	
-8.93353808E-001	-1.17933546E+002	
-8.72640502E-001	-1.17912541E+002	
-8.51927197E-001	-1.17939150E+002	
-8.31213892E-001	-1.17969623E+002	
-8.10500586E-001	-1.18026428E+002	
-7.89787281E-001	-1.18042408E+002	
-7.69073976E-001	-1.18043153E+002	
-7.48360671E-001	-1.18031177E+002	
-7.27647365E-001	-1.18023503E+002	
-7.06934060E-001	-1.18054227E+002	
-6.86220755E-001	-1.18076500E+002	
-6.65507449E-001	-1.18101889E+002	
-6.44794144E-001	-1.18091963E+002	
-6.24080839E-001	-1.18056283E+002	
-6.03367533E-001	-1.18050247E+002	
-5.82654228E-001	-1.18020292E+002	
-5.61940923E-001	-1.17972460E+002	
-5.41227617E-001	-1.17930078E+002	
-5.20514312E-001	-1.17962166E+002	
-4.99801007E-001	-1.18066056E+002	
-4.79087701E-001	-1.18139590E+002	
-4.58374396E-001	-1.18167051E+002	
-4.37661091E-001	-1.18133194E+002	
-4.16947785E-001	-1.18111729E+002	
-3.96234480E-001	-1.18108950E+002	
-3.75521175E-001	-1.18113191E+002	
-3.54807869E-001	-1.18125578E+002	
-3.34094564E-001	-1.18129898E+002	
-3.13381259E-001	-1.18142286E+002	
-2.92667954E-001	-1.18121897E+002	
-2.71954648E-001	-1.17976421E+002	
-2.51241343E-001	-8.62158851E+001	
-2.30528038E-001	-8.59129845E+001	
-2.09814732E-001	-8.59129514E+001	
-1.89101427E-001	-8.59129570E+001	
-1.68388122E-001	-8.59129522E+001	
-1.47674816E-001	-8.59129325E+001	
-1.26961511E-001	-8.59128693E+001	
-1.06248206E-001	-8.59128101E+001	
-8.55349003E-002	-8.59128267E+001	
-6.48215950E-002	-8.59128626E+001	
-4.41082897E-002	-8.59129286E+001	
-2.33949844E-002	-8.59129591E+001	
-2.68167905E-003	-8.59129795E+001	
1.80316263E-002	-8.59129761E+001	
3.87449316E-002	-8.59129891E+001	
5.94582369E-002	-8.59130351E+001	
8.01715422E-002	-8.59130668E+001	
1.00884848E-001	-8.59130946E+001	
1.21598153E-001	-8.59131384E+001	
1.42311458E-001	-8.59131546E+001	
1.63024763E-001	-8.59131685E+001	
1.83738069E-001	-8.59131572E+001	
2.04451374E-001	-8.59131484E+001	
2.25164679E-001	-8.59132133E+001	
2.45877985E-001	-9.25687579E+001	
2.66591290E-001	-1.18439759E+002	
2.87304595E-001	-1.18539925E+002	
3.08017901E-001	-1.18564423E+002	
3.28731206E-001	-1.18514840E+002	
3.49444511E-001	-1.18533642E+002	
3.70157817E-001	-1.18652589E+002	
3.90871122E-001	-1.18796220E+002	
4.11584427E-001	-1.18836393E+002	
4.32297733E-001	-1.18862963E+002	
4.53011038E-001	-1.18879292E+002	
4.73724343E-001	-1.18861389E+002	
4.94437649E-001	-1.18826729E+002	
5.15150954E-001	-1.18844879E+002	
5.35864259E-001	-1.18806227E+002	
5.56577565E-001	-1.18759580E+002	
5.77290870E-001	-1.18784429E+002	
5.98004175E-001	-1.18811052E+002	
6.18717481E-001	-1.18782164E+002	
6.39430786E-001	-1.18757252E+002	
6.60144091E-001	-1.18785523E+002	
6.80857396E-001	-1.18820323E+002	
7.01570702E-001	-1.18858538E+002	
7.22284007E-001	-1.18877039E+002	
7.42997312E-001	-1.18880231E+002	
7.63710618E-001	-1.18855512E+002	
7.84423923E-001	-1.18841298E+002	
8.05137228E-001	-1.18839694E+002	
8.25850534E-001	-1.18877609E+002	
8.46563839E-001	-1.18880873E+002	
8.67277144E-001	-1.18918368E+002	
8.87990450E-001	-1.18942013E+002	
9.08703755E-001	-1.18922605E+002	
9.29417060E-001	-1.18899279E+002	
9.50130366E-001	-1.18903714E+002	
9.70843671E-001	-1.18902931E+002	
9.91556976E-001	-1.18974237E+002	
1.01227028E+000	-1.18970066E+002	
1.03298359E+000	-1.19004872E+002	
1.05369689E+000	-1.19076654E+002	
1.07441020E+000	-1.19072231E+002	
1.09512350E+000	-1.19019882E+002	
1.11583681E+000	-1.18994335E+002	
1.13655011E+000	-1.19032389E+002	
1.15726342E+000	-1.19024008E+002	
1.17797672E+000	-1.19043196E+002	
1.19869003E+000	-1.19049278E+002	
1.21940333E+000	-1.19061511E+002	
1.24011664E+000	-1.19063671E+002	
1.26082995E+000	-1.19024247E+002	
1.28154325E+000	-1.19051889E+002	
1.30225656E+000	-1.19081752E+002	
1.32296986E+000	-1.19062447E+002	
1.34368317E+000	-1.19125717E+002	
1.36439647E+000	-1.19156186E+002	
1.38510978E+000	-1.19188041E+002	
1.40582308E+000	-1.19233281E+002	
1.42653639E+000	-1.19229740E+002	
1.44724969E+000	-1.19186951E+002	
1.46796300E+000	-1.19196458E+002	
1.48867630E+000	-1.19192315E+002	
1.50938961E+000	-1.19186623E+002	
1.53010291E+000	-1.19150441E+002	
1.55081622E+000	-1.19084224E+002	
1.57152953E+000	-1.19024329E+002	
