Acquired on 8/13/2021 at 12:13:01
Calibrated on 8/13/2021 at 11:06:07
Device Descriptor:  [none]
Scan Range (nm):  1539.624  --  1560.517
Measurement Type:  Reflection
Group Index:  1.500
Gain:  24 dB
Domain:  Time
Spatial Resolution (mm):  50.000000
Frequency domain window was applied to measurement data.
Number of Data Points (in this file):  16384
NOTE: Data stored in this file is decimated by a factor of 64.

Time (ns)	Amplitude (dB)	
-1.00072081E+001	-1.20667230E+002	
-9.98649484E+000	-1.20328359E+002	
-9.96578154E+000	-1.19961584E+002	
-9.94506823E+000	-1.19693901E+002	
-9.92435493E+000	-1.19462597E+002	
-9.90364162E+000	-1.19220608E+002	
-9.88292832E+000	-1.19007496E+002	
-9.86221501E+000	-1.18795843E+002	
-9.84150171E+000	-1.18599178E+002	
-9.82078840E+000	-1.18416847E+002	
-9.80007509E+000	-1.18217284E+002	
-9.77936179E+000	-1.18017427E+002	
-9.75864848E+000	-1.17955853E+002	
-9.73793518E+000	-1.17965228E+002	
-9.71722187E+000	-1.17964672E+002	
-9.69650857E+000	-1.17961781E+002	
-9.67579526E+000	-1.18012648E+002	
-9.65508196E+000	-1.17992358E+002	
-9.63436865E+000	-1.17936388E+002	
-9.61365535E+000	-1.17943512E+002	
-9.59294204E+000	-1.17974089E+002	
-9.57222874E+000	-1.17996626E+002	
-9.55151543E+000	-1.18010623E+002	
-9.53080213E+000	-1.18002651E+002	
-9.51008882E+000	-1.18037806E+002	
-9.48937552E+000	-1.18067086E+002	
-9.46866221E+000	-1.18070400E+002	
-9.44794890E+000	-1.18041297E+002	
-9.42723560E+000	-1.17993590E+002	
-9.40652229E+000	-1.17993440E+002	
-9.38580899E+000	-1.17968411E+002	
-9.36509568E+000	-1.17958766E+002	
-9.34438238E+000	-1.17923886E+002	
-9.32366907E+000	-1.17897988E+002	
-9.30295577E+000	-1.17895046E+002	
-9.28224246E+000	-1.17912139E+002	
-9.26152916E+000	-1.17867872E+002	
-9.24081585E+000	-1.17812892E+002	
-9.22010255E+000	-1.17801442E+002	
-9.19938924E+000	-1.17840341E+002	
-9.17867594E+000	-1.17831260E+002	
-9.15796263E+000	-1.17837208E+002	
-9.13724932E+000	-1.17898372E+002	
-9.11653602E+000	-1.17902741E+002	
-9.09582271E+000	-1.17853580E+002	
-9.07510941E+000	-1.17861428E+002	
-9.05439610E+000	-1.17859830E+002	
-9.03368280E+000	-1.17732475E+002	
-9.01296949E+000	-1.17718186E+002	
-8.99225619E+000	-1.17721026E+002	
-8.97154288E+000	-1.17770704E+002	
-8.95082958E+000	-1.17790687E+002	
-8.93011627E+000	-1.17821964E+002	
-8.90940297E+000	-1.17843791E+002	
-8.88868966E+000	-1.17869563E+002	
-8.86797636E+000	-1.17862743E+002	
-8.84726305E+000	-1.17880770E+002	
-8.82654974E+000	-1.17872750E+002	
-8.80583644E+000	-1.17890917E+002	
-8.78512313E+000	-1.17893799E+002	
-8.76440983E+000	-1.17910891E+002	
-8.74369652E+000	-1.17973356E+002	
-8.72298322E+000	-1.17985965E+002	
-8.70226991E+000	-1.17914077E+002	
-8.68155661E+000	-1.17879659E+002	
-8.66084330E+000	-1.17910348E+002	
-8.64013000E+000	-1.17879950E+002	
-8.61941669E+000	-1.17838519E+002	
-8.59870339E+000	-1.17883405E+002	
-8.57799008E+000	-1.17887754E+002	
-8.55727678E+000	-1.17853361E+002	
-8.53656347E+000	-1.17971927E+002	
-8.51585017E+000	-1.17996153E+002	
-8.49513686E+000	-1.18002456E+002	
-8.47442355E+000	-1.17990900E+002	
-8.45371025E+000	-1.18020808E+002	
-8.43299694E+000	-1.18059944E+002	
-8.41228364E+000	-1.18015291E+002	
-8.39157033E+000	-1.17981347E+002	
-8.37085703E+000	-1.18024890E+002	
-8.35014372E+000	-1.18037339E+002	
-8.32943042E+000	-1.18048793E+002	
-8.30871711E+000	-1.18004534E+002	
-8.28800381E+000	-1.18037070E+002	
-8.26729050E+000	-1.18016939E+002	
-8.24657720E+000	-1.18001634E+002	
-8.22586389E+000	-1.17983116E+002	
-8.20515059E+000	-1.18034322E+002	
-8.18443728E+000	-1.18034970E+002	
-8.16372397E+000	-1.18021559E+002	
-8.14301067E+000	-1.17969269E+002	
-8.12229736E+000	-1.17982976E+002	
-8.10158406E+000	-1.17969438E+002	
-8.08087075E+000	-1.17961811E+002	
-8.06015745E+000	-1.17945001E+002	
-8.03944414E+000	-1.17895785E+002	
-8.01873084E+000	-1.17909518E+002	
-7.99801753E+000	-1.17890275E+002	
-7.97730423E+000	-1.17879337E+002	
-7.95659092E+000	-1.17849404E+002	
-7.93587762E+000	-1.17858669E+002	
-7.91516431E+000	-1.17901047E+002	
-7.89445101E+000	-1.17906069E+002	
-7.87373770E+000	-1.17890841E+002	
-7.85302439E+000	-1.17888160E+002	
-7.83231109E+000	-1.17872460E+002	
-7.81159778E+000	-1.17924557E+002	
-7.79088448E+000	-1.17952085E+002	
-7.77017117E+000	-1.17977966E+002	
-7.74945787E+000	-1.17998705E+002	
-7.72874456E+000	-1.18016025E+002	
-7.70803126E+000	-1.17974919E+002	
-7.68731795E+000	-1.18003356E+002	
-7.66660465E+000	-1.17995564E+002	
-7.64589134E+000	-1.17992570E+002	
-7.62517804E+000	-1.17976897E+002	
-7.60446473E+000	-1.17918942E+002	
-7.58375143E+000	-1.17935480E+002	
-7.56303812E+000	-1.17962838E+002	
-7.54232482E+000	-1.18023997E+002	
-7.52161151E+000	-1.18008640E+002	
-7.50089820E+000	-1.18023098E+002	
-7.48018490E+000	-1.18002079E+002	
-7.45947159E+000	-1.18049727E+002	
-7.43875829E+000	-1.17987383E+002	
-7.41804498E+000	-1.17901578E+002	
-7.39733168E+000	-1.17951865E+002	
-7.37661837E+000	-1.17962979E+002	
-7.35590507E+000	-1.17962456E+002	
-7.33519176E+000	-1.17979319E+002	
-7.31447846E+000	-1.17997810E+002	
-7.29376515E+000	-1.17969674E+002	
-7.27305185E+000	-1.17935714E+002	
-7.25233854E+000	-1.17969159E+002	
-7.23162524E+000	-1.17980841E+002	
-7.21091193E+000	-1.17973955E+002	
-7.19019862E+000	-1.17974124E+002	
-7.16948532E+000	-1.18023442E+002	
-7.14877201E+000	-1.18097072E+002	
-7.12805871E+000	-1.18150572E+002	
-7.10734540E+000	-1.18225546E+002	
-7.08663210E+000	-1.18260905E+002	
-7.06591879E+000	-1.18240822E+002	
-7.04520549E+000	-1.18224224E+002	
-7.02449218E+000	-1.18199218E+002	
-7.00377888E+000	-1.18159634E+002	
-6.98306557E+000	-1.18196061E+002	
-6.96235227E+000	-1.18151048E+002	
-6.94163896E+000	-1.18172247E+002	
-6.92092566E+000	-1.18243764E+002	
-6.90021235E+000	-1.18231273E+002	
-6.87949904E+000	-1.18198259E+002	
-6.85878574E+000	-1.18190288E+002	
-6.83807243E+000	-1.18216252E+002	
-6.81735913E+000	-1.18227002E+002	
-6.79664582E+000	-1.18182011E+002	
-6.77593252E+000	-1.18225701E+002	
-6.75521921E+000	-1.18178062E+002	
-6.73450591E+000	-1.18168332E+002	
-6.71379260E+000	-1.18141153E+002	
-6.69307930E+000	-1.18138337E+002	
-6.67236599E+000	-1.18094265E+002	
-6.65165269E+000	-1.18075071E+002	
-6.63093938E+000	-1.18101026E+002	
-6.61022608E+000	-1.18126565E+002	
-6.58951277E+000	-1.18117591E+002	
-6.56879947E+000	-1.18108217E+002	
-6.54808616E+000	-1.18097732E+002	
-6.52737285E+000	-1.18078855E+002	
-6.50665955E+000	-1.18105832E+002	
-6.48594624E+000	-1.18152748E+002	
-6.46523294E+000	-1.18194505E+002	
-6.44451963E+000	-1.18127212E+002	
-6.42380633E+000	-1.18080875E+002	
-6.40309302E+000	-1.18079603E+002	
-6.38237972E+000	-1.18060152E+002	
-6.36166641E+000	-1.18058912E+002	
-6.34095311E+000	-1.18059948E+002	
-6.32023980E+000	-1.18048598E+002	
-6.29952650E+000	-1.18058376E+002	
-6.27881319E+000	-1.18036623E+002	
-6.25809989E+000	-1.18047386E+002	
-6.23738658E+000	-1.18034662E+002	
-6.21667327E+000	-1.18022993E+002	
-6.19595997E+000	-1.18038392E+002	
-6.17524666E+000	-1.18029931E+002	
-6.15453336E+000	-1.18033862E+002	
-6.13382005E+000	-1.18009878E+002	
-6.11310675E+000	-1.18003095E+002	
-6.09239344E+000	-1.17999105E+002	
-6.07168014E+000	-1.17950610E+002	
-6.05096683E+000	-1.18018578E+002	
-6.03025353E+000	-1.18033744E+002	
-6.00954022E+000	-1.18024870E+002	
-5.98882692E+000	-1.17973798E+002	
-5.96811361E+000	-1.17977046E+002	
-5.94740031E+000	-1.18027745E+002	
-5.92668700E+000	-1.18073994E+002	
-5.90597369E+000	-1.18088345E+002	
-5.88526039E+000	-1.18129221E+002	
-5.86454708E+000	-1.18148236E+002	
-5.84383378E+000	-1.18111290E+002	
-5.82312047E+000	-1.18137311E+002	
-5.80240717E+000	-1.18112729E+002	
-5.78169386E+000	-1.18110807E+002	
-5.76098056E+000	-1.18108059E+002	
-5.74026725E+000	-1.18115188E+002	
-5.71955395E+000	-1.18162373E+002	
-5.69884064E+000	-1.18165378E+002	
-5.67812734E+000	-1.18194298E+002	
-5.65741403E+000	-1.18192874E+002	
-5.63670073E+000	-1.18199810E+002	
-5.61598742E+000	-1.18183227E+002	
-5.59527412E+000	-1.18149076E+002	
-5.57456081E+000	-1.18208810E+002	
-5.55384750E+000	-1.18114101E+002	
-5.53313420E+000	-1.18041648E+002	
-5.51242089E+000	-1.18057119E+002	
-5.49170759E+000	-1.18052391E+002	
-5.47099428E+000	-1.18027555E+002	
-5.45028098E+000	-1.18079945E+002	
-5.42956767E+000	-1.18121471E+002	
-5.40885437E+000	-1.18107841E+002	
-5.38814106E+000	-1.18092511E+002	
-5.36742776E+000	-1.18064709E+002	
-5.34671445E+000	-1.18101808E+002	
-5.32600115E+000	-1.18091297E+002	
-5.30528784E+000	-1.18107882E+002	
-5.28457454E+000	-1.18086588E+002	
-5.26386123E+000	-1.18078159E+002	
-5.24314792E+000	-1.18011762E+002	
-5.22243462E+000	-1.17970998E+002	
-5.20172131E+000	-1.17973712E+002	
-5.18100801E+000	-1.17928005E+002	
-5.16029470E+000	-1.17912258E+002	
-5.13958140E+000	-1.17867114E+002	
-5.11886809E+000	-1.17836997E+002	
-5.09815479E+000	-1.17844588E+002	
-5.07744148E+000	-1.17808578E+002	
-5.05672818E+000	-1.17873665E+002	
-5.03601487E+000	-1.17896039E+002	
-5.01530157E+000	-1.17924585E+002	
-4.99458826E+000	-1.17934690E+002	
-4.97387496E+000	-1.17887972E+002	
-4.95316165E+000	-1.17883089E+002	
-4.93244834E+000	-1.17835961E+002	
-4.91173504E+000	-1.17816947E+002	
-4.89102173E+000	-1.17822237E+002	
-4.87030843E+000	-1.17860882E+002	
-4.84959512E+000	-1.17840844E+002	
-4.82888182E+000	-1.17804863E+002	
-4.80816851E+000	-1.17796976E+002	
-4.78745521E+000	-1.17820167E+002	
-4.76674190E+000	-1.17852150E+002	
-4.74602860E+000	-1.17877596E+002	
-4.72531529E+000	-1.17932917E+002	
-4.70460199E+000	-1.17918713E+002	
-4.68388868E+000	-1.17962485E+002	
-4.66317538E+000	-1.17961929E+002	
-4.64246207E+000	-1.18002874E+002	
-4.62174877E+000	-1.18043750E+002	
-4.60103546E+000	-1.18081685E+002	
-4.58032215E+000	-1.18107165E+002	
-4.55960885E+000	-1.18079435E+002	
-4.53889554E+000	-1.18114502E+002	
-4.51818224E+000	-1.18042965E+002	
-4.49746893E+000	-1.17999731E+002	
-4.47675563E+000	-1.18048551E+002	
-4.45604232E+000	-1.18040188E+002	
-4.43532902E+000	-1.18039434E+002	
-4.41461571E+000	-1.18027667E+002	
-4.39390241E+000	-1.18042166E+002	
-4.37318910E+000	-1.18046602E+002	
-4.35247580E+000	-1.18024613E+002	
-4.33176249E+000	-1.18013012E+002	
-4.31104919E+000	-1.18006187E+002	
-4.29033588E+000	-1.17998336E+002	
-4.26962257E+000	-1.17991387E+002	
-4.24890927E+000	-1.18033918E+002	
-4.22819596E+000	-1.18044528E+002	
-4.20748266E+000	-1.18089967E+002	
-4.18676935E+000	-1.18048651E+002	
-4.16605605E+000	-1.18052805E+002	
-4.14534274E+000	-1.18067575E+002	
-4.12462944E+000	-1.18033038E+002	
-4.10391613E+000	-1.18025777E+002	
-4.08320283E+000	-1.18013421E+002	
-4.06248952E+000	-1.18010521E+002	
-4.04177622E+000	-1.17978465E+002	
-4.02106291E+000	-1.18016181E+002	
-4.00034961E+000	-1.18020646E+002	
-3.97963630E+000	-1.17980906E+002	
-3.95892299E+000	-1.17990382E+002	
-3.93820969E+000	-1.17973887E+002	
-3.91749638E+000	-1.17996565E+002	
-3.89678308E+000	-1.17962095E+002	
-3.87606977E+000	-1.17886496E+002	
-3.85535647E+000	-1.17893629E+002	
-3.83464316E+000	-1.17898806E+002	
-3.81392986E+000	-1.17896859E+002	
-3.79321655E+000	-1.17926193E+002	
-3.77250325E+000	-1.17860666E+002	
-3.75178994E+000	-1.17863841E+002	
-3.73107664E+000	-1.17874665E+002	
-3.71036333E+000	-1.17807181E+002	
-3.68965003E+000	-1.17831499E+002	
-3.66893672E+000	-1.17879369E+002	
-3.64822342E+000	-1.17844335E+002	
-3.62751011E+000	-1.17859389E+002	
-3.60679680E+000	-1.17858401E+002	
-3.58608350E+000	-1.17862159E+002	
-3.56537019E+000	-1.17889929E+002	
-3.54465689E+000	-1.17902741E+002	
-3.52394358E+000	-1.17932733E+002	
-3.50323028E+000	-1.17976928E+002	
-3.48251697E+000	-1.18013128E+002	
-3.46180367E+000	-1.18034921E+002	
-3.44109036E+000	-1.18045332E+002	
-3.42037706E+000	-1.18077649E+002	
-3.39966375E+000	-1.18112373E+002	
-3.37895045E+000	-1.18157763E+002	
-3.35823714E+000	-1.18147944E+002	
-3.33752384E+000	-1.18151497E+002	
-3.31681053E+000	-1.18163309E+002	
-3.29609722E+000	-1.18130211E+002	
-3.27538392E+000	-1.18146745E+002	
-3.25467061E+000	-1.18146811E+002	
-3.23395731E+000	-1.18131274E+002	
-3.21324400E+000	-1.18158298E+002	
-3.19253070E+000	-1.18154787E+002	
-3.17181739E+000	-1.18126902E+002	
-3.15110409E+000	-1.18102237E+002	
-3.13039078E+000	-1.18092869E+002	
-3.10967748E+000	-1.18136022E+002	
-3.08896417E+000	-1.18124447E+002	
-3.06825087E+000	-1.18108652E+002	
-3.04753756E+000	-1.18114744E+002	
-3.02682426E+000	-1.18076297E+002	
-3.00611095E+000	-1.18003997E+002	
-2.98539764E+000	-1.18044115E+002	
-2.96468434E+000	-1.18011463E+002	
-2.94397103E+000	-1.17983620E+002	
-2.92325773E+000	-1.17941600E+002	
-2.90254442E+000	-1.17941691E+002	
-2.88183112E+000	-1.17958176E+002	
-2.86111781E+000	-1.18004143E+002	
-2.84040451E+000	-1.18043909E+002	
-2.81969120E+000	-1.18079049E+002	
-2.79897790E+000	-1.18146517E+002	
-2.77826459E+000	-1.18109526E+002	
-2.75755129E+000	-1.18089237E+002	
-2.73683798E+000	-1.18104688E+002	
-2.71612468E+000	-1.18058914E+002	
-2.69541137E+000	-1.18039457E+002	
-2.67469807E+000	-1.18103905E+002	
-2.65398476E+000	-1.18128335E+002	
-2.63327145E+000	-1.18122307E+002	
-2.61255815E+000	-1.18060163E+002	
-2.59184484E+000	-1.18058371E+002	
-2.57113154E+000	-1.18053672E+002	
-2.55041823E+000	-1.18060348E+002	
-2.52970493E+000	-1.18113047E+002	
-2.50899162E+000	-1.18179066E+002	
-2.48827832E+000	-1.18160313E+002	
-2.46756501E+000	-1.18159728E+002	
-2.44685171E+000	-1.18165607E+002	
-2.42613840E+000	-1.18191781E+002	
-2.40542510E+000	-1.18201524E+002	
-2.38471179E+000	-1.18182452E+002	
-2.36399849E+000	-1.18159528E+002	
-2.34328518E+000	-1.18113303E+002	
-2.32257187E+000	-1.18059564E+002	
-2.30185857E+000	-1.17984361E+002	
-2.28114526E+000	-1.18004255E+002	
-2.26043196E+000	-1.18082006E+002	
-2.23971865E+000	-1.18069056E+002	
-2.21900535E+000	-1.18117735E+002	
-2.19829204E+000	-1.18139603E+002	
-2.17757874E+000	-1.18099443E+002	
-2.15686543E+000	-1.18085208E+002	
-2.13615213E+000	-1.18135879E+002	
-2.11543882E+000	-1.18140288E+002	
-2.09472552E+000	-1.18149559E+002	
-2.07401221E+000	-1.18119806E+002	
-2.05329891E+000	-1.18069631E+002	
-2.03258560E+000	-1.18084761E+002	
-2.01187229E+000	-1.18087659E+002	
-1.99115899E+000	-1.18094890E+002	
-1.97044568E+000	-1.18031532E+002	
-1.94973238E+000	-1.18044215E+002	
-1.92901907E+000	-1.18030197E+002	
-1.90830577E+000	-1.17986806E+002	
-1.88759246E+000	-1.17986703E+002	
-1.86687916E+000	-1.18024477E+002	
-1.84616585E+000	-1.17992396E+002	
-1.82545255E+000	-1.18068395E+002	
-1.80473924E+000	-1.18074127E+002	
-1.78402594E+000	-1.18110321E+002	
-1.76331263E+000	-1.18104236E+002	
-1.74259933E+000	-1.18053057E+002	
-1.72188602E+000	-1.18057215E+002	
-1.70117272E+000	-1.18133568E+002	
-1.68045941E+000	-1.18158256E+002	
-1.65974610E+000	-1.18118392E+002	
-1.63903280E+000	-1.18081038E+002	
-1.61831949E+000	-1.18140885E+002	
-1.59760619E+000	-1.18153121E+002	
-1.57689288E+000	-1.18163793E+002	
-1.55617958E+000	-1.18218546E+002	
-1.53546627E+000	-1.18198094E+002	
-1.51475297E+000	-1.18196352E+002	
-1.49403966E+000	-1.18166401E+002	
-1.47332636E+000	-1.18213530E+002	
-1.45261305E+000	-1.18186297E+002	
-1.43189975E+000	-1.18183067E+002	
-1.41118644E+000	-1.18174560E+002	
-1.39047314E+000	-1.18195820E+002	
-1.36975983E+000	-1.18157304E+002	
-1.34904652E+000	-1.18159671E+002	
-1.32833322E+000	-1.18112023E+002	
-1.30761991E+000	-1.18068685E+002	
-1.28690661E+000	-1.18075205E+002	
-1.26619330E+000	-1.18066087E+002	
-1.24548000E+000	-1.18117273E+002	
-1.22476669E+000	-1.18139015E+002	
-1.20405339E+000	-1.18034453E+002	
-1.18334008E+000	-1.18024705E+002	
-1.16262678E+000	-1.18088419E+002	
-1.14191347E+000	-1.18117703E+002	
-1.12120017E+000	-1.18110417E+002	
-1.10048686E+000	-1.18087898E+002	
-1.07977356E+000	-1.18095272E+002	
-1.05906025E+000	-1.18133566E+002	
-1.03834694E+000	-1.18118868E+002	
-1.01763364E+000	-1.18051256E+002	
-9.96920334E-001	-1.17962819E+002	
-9.76207029E-001	-1.17918227E+002	
-9.55493724E-001	-1.17935284E+002	
-9.34780418E-001	-1.17945480E+002	
-9.14067113E-001	-1.17990216E+002	
-8.93353808E-001	-1.17974622E+002	
-8.72640502E-001	-1.17948021E+002	
-8.51927197E-001	-1.17975502E+002	
-8.31213892E-001	-1.18007148E+002	
-8.10500586E-001	-1.18065255E+002	
-7.89787281E-001	-1.18082250E+002	
-7.69073976E-001	-1.18092080E+002	
-7.48360671E-001	-1.18079149E+002	
-7.27647365E-001	-1.18070431E+002	
-7.06934060E-001	-1.18101313E+002	
-6.86220755E-001	-1.18122137E+002	
-6.65507449E-001	-1.18148490E+002	
-6.44794144E-001	-1.18147758E+002	
-6.24080839E-001	-1.18113711E+002	
-6.03367533E-001	-1.18109331E+002	
-5.82654228E-001	-1.18084422E+002	
-5.61940923E-001	-1.18034795E+002	
-5.41227617E-001	-1.17990031E+002	
-5.20514312E-001	-1.18023055E+002	
-4.99801007E-001	-1.18132089E+002	
-4.79087701E-001	-1.18212280E+002	
-4.58374396E-001	-1.18240965E+002	
-4.37661091E-001	-1.18206074E+002	
-4.16947785E-001	-1.18185502E+002	
-3.96234480E-001	-1.18188579E+002	
-3.75521175E-001	-1.18196171E+002	
-3.54807869E-001	-1.18211310E+002	
-3.34094564E-001	-1.18220833E+002	
-3.13381259E-001	-1.18235924E+002	
-2.92667954E-001	-1.18147350E+002	
-2.71954648E-001	-1.17856744E+002	
-2.51241343E-001	-8.60327974E+001	
-2.30528038E-001	-8.56957299E+001	
-2.09814732E-001	-8.56956381E+001	
-1.89101427E-001	-8.56956379E+001	
-1.68388122E-001	-8.56956307E+001	
-1.47674816E-001	-8.56956070E+001	
-1.26961511E-001	-8.56955364E+001	
-1.06248206E-001	-8.56954880E+001	
-8.55349003E-002	-8.56955097E+001	
-6.48215950E-002	-8.56955419E+001	
-4.41082897E-002	-8.56956001E+001	
-2.33949844E-002	-8.56956310E+001	
-2.68167905E-003	-8.56956475E+001	
1.80316263E-002	-8.56956436E+001	
3.87449316E-002	-8.56956578E+001	
5.94582369E-002	-8.56957074E+001	
8.01715422E-002	-8.56957330E+001	
1.00884848E-001	-8.56957515E+001	
1.21598153E-001	-8.56957993E+001	
1.42311458E-001	-8.56958106E+001	
1.63024763E-001	-8.56958172E+001	
1.83738069E-001	-8.56958078E+001	
2.04451374E-001	-8.56958221E+001	
2.25164679E-001	-8.56959690E+001	
2.45877985E-001	-9.22074055E+001	
2.66591290E-001	-1.18345669E+002	
2.87304595E-001	-1.18578323E+002	
3.08017901E-001	-1.18616811E+002	
3.28731206E-001	-1.18579139E+002	
3.49444511E-001	-1.18606939E+002	
3.70157817E-001	-1.18746261E+002	
3.90871122E-001	-1.18869643E+002	
4.11584427E-001	-1.18905650E+002	
4.32297733E-001	-1.18928551E+002	
4.53011038E-001	-1.18945735E+002	
4.73724343E-001	-1.18929720E+002	
4.94437649E-001	-1.18893561E+002	
5.15150954E-001	-1.18902089E+002	
5.35864259E-001	-1.18860960E+002	
5.56577565E-001	-1.18804641E+002	
5.77290870E-001	-1.18834962E+002	
5.98004175E-001	-1.18872370E+002	
6.18717481E-001	-1.18825332E+002	
6.39430786E-001	-1.18800788E+002	
6.60144091E-001	-1.18832082E+002	
6.80857396E-001	-1.18865120E+002	
7.01570702E-001	-1.18898531E+002	
7.22284007E-001	-1.18914998E+002	
7.42997312E-001	-1.18913880E+002	
7.63710618E-001	-1.18891487E+002	
7.84423923E-001	-1.18880805E+002	
8.05137228E-001	-1.18880981E+002	
8.25850534E-001	-1.18910777E+002	
8.46563839E-001	-1.18901107E+002	
8.67277144E-001	-1.18934879E+002	
8.87990450E-001	-1.18970402E+002	
9.08703755E-001	-1.18941037E+002	
9.29417060E-001	-1.18915256E+002	
9.50130366E-001	-1.18919726E+002	
9.70843671E-001	-1.18920725E+002	
9.91556976E-001	-1.18987456E+002	
1.01227028E+000	-1.18991749E+002	
1.03298359E+000	-1.19035709E+002	
1.05369689E+000	-1.19109067E+002	
1.07441020E+000	-1.19100216E+002	
1.09512350E+000	-1.19049729E+002	
1.11583681E+000	-1.19020717E+002	
1.13655011E+000	-1.19057447E+002	
1.15726342E+000	-1.19055148E+002	
1.17797672E+000	-1.19070267E+002	
1.19869003E+000	-1.19080188E+002	
1.21940333E+000	-1.19107431E+002	
1.24011664E+000	-1.19110549E+002	
1.26082995E+000	-1.19071348E+002	
1.28154325E+000	-1.19099722E+002	
1.30225656E+000	-1.19130983E+002	
1.32296986E+000	-1.19112555E+002	
1.34368317E+000	-1.19181717E+002	
1.36439647E+000	-1.19221986E+002	
1.38510978E+000	-1.19258002E+002	
1.40582308E+000	-1.19302533E+002	
1.42653639E+000	-1.19302331E+002	
1.44724969E+000	-1.19264642E+002	
1.46796300E+000	-1.19270570E+002	
1.48867630E+000	-1.19263289E+002	
1.50938961E+000	-1.19263098E+002	
1.53010291E+000	-1.19229013E+002	
1.55081622E+000	-1.19163653E+002	
1.57152953E+000	-1.19107872E+002	
