Acquired on 8/13/2021 at 12:11:47
Calibrated on 8/13/2021 at 11:06:07
Device Descriptor:  [none]
Scan Range (nm):  1539.624  --  1560.517
Measurement Type:  Reflection
Group Index:  1.500
Gain:  24 dB
Domain:  Time
Spatial Resolution (mm):  50.000000
Frequency domain window was applied to measurement data.
Number of Data Points (in this file):  16384
NOTE: Data stored in this file is decimated by a factor of 64.

Time (ns)	Amplitude (dB)	
-1.00072081E+001	-1.20679775E+002	
-9.98649484E+000	-1.20346169E+002	
-9.96578154E+000	-1.19992468E+002	
-9.94506823E+000	-1.19728384E+002	
-9.92435493E+000	-1.19494606E+002	
-9.90364162E+000	-1.19249409E+002	
-9.88292832E+000	-1.19027032E+002	
-9.86221501E+000	-1.18819048E+002	
-9.84150171E+000	-1.18618056E+002	
-9.82078840E+000	-1.18436147E+002	
-9.80007509E+000	-1.18233630E+002	
-9.77936179E+000	-1.18035012E+002	
-9.75864848E+000	-1.17980687E+002	
-9.73793518E+000	-1.17991862E+002	
-9.71722187E+000	-1.17989567E+002	
-9.69650857E+000	-1.17990175E+002	
-9.67579526E+000	-1.18045231E+002	
-9.65508196E+000	-1.18028128E+002	
-9.63436865E+000	-1.17973549E+002	
-9.61365535E+000	-1.17978031E+002	
-9.59294204E+000	-1.18009577E+002	
-9.57222874E+000	-1.18028272E+002	
-9.55151543E+000	-1.18040834E+002	
-9.53080213E+000	-1.18033303E+002	
-9.51008882E+000	-1.18066698E+002	
-9.48937552E+000	-1.18090423E+002	
-9.46866221E+000	-1.18084424E+002	
-9.44794890E+000	-1.18055000E+002	
-9.42723560E+000	-1.18006800E+002	
-9.40652229E+000	-1.18000702E+002	
-9.38580899E+000	-1.17982725E+002	
-9.36509568E+000	-1.17966161E+002	
-9.34438238E+000	-1.17932641E+002	
-9.32366907E+000	-1.17910281E+002	
-9.30295577E+000	-1.17913434E+002	
-9.28224246E+000	-1.17932077E+002	
-9.26152916E+000	-1.17877626E+002	
-9.24081585E+000	-1.17814587E+002	
-9.22010255E+000	-1.17800644E+002	
-9.19938924E+000	-1.17840381E+002	
-9.17867594E+000	-1.17827837E+002	
-9.15796263E+000	-1.17829642E+002	
-9.13724932E+000	-1.17885375E+002	
-9.11653602E+000	-1.17888192E+002	
-9.09582271E+000	-1.17839575E+002	
-9.07510941E+000	-1.17842371E+002	
-9.05439610E+000	-1.17850411E+002	
-9.03368280E+000	-1.17728726E+002	
-9.01296949E+000	-1.17711808E+002	
-8.99225619E+000	-1.17717581E+002	
-8.97154288E+000	-1.17767796E+002	
-8.95082958E+000	-1.17786726E+002	
-8.93011627E+000	-1.17817836E+002	
-8.90940297E+000	-1.17841723E+002	
-8.88868966E+000	-1.17869728E+002	
-8.86797636E+000	-1.17866795E+002	
-8.84726305E+000	-1.17885118E+002	
-8.82654974E+000	-1.17863317E+002	
-8.80583644E+000	-1.17873039E+002	
-8.78512313E+000	-1.17870204E+002	
-8.76440983E+000	-1.17891957E+002	
-8.74369652E+000	-1.17955362E+002	
-8.72298322E+000	-1.17975693E+002	
-8.70226991E+000	-1.17900699E+002	
-8.68155661E+000	-1.17860893E+002	
-8.66084330E+000	-1.17893559E+002	
-8.64013000E+000	-1.17870578E+002	
-8.61941669E+000	-1.17835718E+002	
-8.59870339E+000	-1.17878075E+002	
-8.57799008E+000	-1.17881915E+002	
-8.55727678E+000	-1.17838556E+002	
-8.53656347E+000	-1.17951620E+002	
-8.51585017E+000	-1.17975154E+002	
-8.49513686E+000	-1.17977054E+002	
-8.47442355E+000	-1.17963891E+002	
-8.45371025E+000	-1.17992789E+002	
-8.43299694E+000	-1.18029233E+002	
-8.41228364E+000	-1.17991675E+002	
-8.39157033E+000	-1.17965751E+002	
-8.37085703E+000	-1.18008954E+002	
-8.35014372E+000	-1.18021271E+002	
-8.32943042E+000	-1.18044497E+002	
-8.30871711E+000	-1.18002737E+002	
-8.28800381E+000	-1.18039134E+002	
-8.26729050E+000	-1.18025161E+002	
-8.24657720E+000	-1.18022446E+002	
-8.22586389E+000	-1.18000866E+002	
-8.20515059E+000	-1.18050679E+002	
-8.18443728E+000	-1.18051983E+002	
-8.16372397E+000	-1.18035741E+002	
-8.14301067E+000	-1.17982379E+002	
-8.12229736E+000	-1.17994615E+002	
-8.10158406E+000	-1.17990005E+002	
-8.08087075E+000	-1.17985206E+002	
-8.06015745E+000	-1.17962455E+002	
-8.03944414E+000	-1.17902634E+002	
-8.01873084E+000	-1.17916055E+002	
-7.99801753E+000	-1.17898061E+002	
-7.97730423E+000	-1.17889646E+002	
-7.95659092E+000	-1.17862694E+002	
-7.93587762E+000	-1.17870539E+002	
-7.91516431E+000	-1.17914574E+002	
-7.89445101E+000	-1.17909839E+002	
-7.87373770E+000	-1.17888184E+002	
-7.85302439E+000	-1.17884370E+002	
-7.83231109E+000	-1.17863276E+002	
-7.81159778E+000	-1.17914521E+002	
-7.79088448E+000	-1.17939157E+002	
-7.77017117E+000	-1.17957574E+002	
-7.74945787E+000	-1.17970216E+002	
-7.72874456E+000	-1.17980684E+002	
-7.70803126E+000	-1.17937305E+002	
-7.68731795E+000	-1.17971722E+002	
-7.66660465E+000	-1.17971402E+002	
-7.64589134E+000	-1.17973413E+002	
-7.62517804E+000	-1.17957005E+002	
-7.60446473E+000	-1.17893098E+002	
-7.58375143E+000	-1.17910576E+002	
-7.56303812E+000	-1.17943675E+002	
-7.54232482E+000	-1.18019221E+002	
-7.52161151E+000	-1.18006565E+002	
-7.50089820E+000	-1.18021394E+002	
-7.48018490E+000	-1.17998776E+002	
-7.45947159E+000	-1.18038275E+002	
-7.43875829E+000	-1.17968047E+002	
-7.41804498E+000	-1.17875953E+002	
-7.39733168E+000	-1.17928576E+002	
-7.37661837E+000	-1.17946634E+002	
-7.35590507E+000	-1.17954412E+002	
-7.33519176E+000	-1.17973329E+002	
-7.31447846E+000	-1.17994185E+002	
-7.29376515E+000	-1.17968824E+002	
-7.27305185E+000	-1.17936924E+002	
-7.25233854E+000	-1.17967843E+002	
-7.23162524E+000	-1.17985792E+002	
-7.21091193E+000	-1.17984178E+002	
-7.19019862E+000	-1.17983774E+002	
-7.16948532E+000	-1.18031105E+002	
-7.14877201E+000	-1.18103957E+002	
-7.12805871E+000	-1.18164954E+002	
-7.10734540E+000	-1.18239756E+002	
-7.08663210E+000	-1.18270475E+002	
-7.06591879E+000	-1.18247056E+002	
-7.04520549E+000	-1.18229075E+002	
-7.02449218E+000	-1.18205231E+002	
-7.00377888E+000	-1.18169415E+002	
-6.98306557E+000	-1.18206208E+002	
-6.96235227E+000	-1.18163925E+002	
-6.94163896E+000	-1.18193528E+002	
-6.92092566E+000	-1.18270708E+002	
-6.90021235E+000	-1.18255751E+002	
-6.87949904E+000	-1.18216803E+002	
-6.85878574E+000	-1.18198786E+002	
-6.83807243E+000	-1.18220168E+002	
-6.81735913E+000	-1.18229129E+002	
-6.79664582E+000	-1.18185444E+002	
-6.77593252E+000	-1.18227356E+002	
-6.75521921E+000	-1.18185764E+002	
-6.73450591E+000	-1.18175141E+002	
-6.71379260E+000	-1.18148416E+002	
-6.69307930E+000	-1.18142635E+002	
-6.67236599E+000	-1.18095388E+002	
-6.65165269E+000	-1.18071912E+002	
-6.63093938E+000	-1.18088341E+002	
-6.61022608E+000	-1.18107297E+002	
-6.58951277E+000	-1.18100130E+002	
-6.56879947E+000	-1.18088503E+002	
-6.54808616E+000	-1.18076921E+002	
-6.52737285E+000	-1.18056260E+002	
-6.50665955E+000	-1.18079597E+002	
-6.48594624E+000	-1.18121204E+002	
-6.46523294E+000	-1.18161632E+002	
-6.44451963E+000	-1.18094988E+002	
-6.42380633E+000	-1.18050927E+002	
-6.40309302E+000	-1.18050012E+002	
-6.38237972E+000	-1.18020980E+002	
-6.36166641E+000	-1.18020169E+002	
-6.34095311E+000	-1.18026754E+002	
-6.32023980E+000	-1.18023122E+002	
-6.29952650E+000	-1.18025511E+002	
-6.27881319E+000	-1.17999844E+002	
-6.25809989E+000	-1.18005583E+002	
-6.23738658E+000	-1.17992127E+002	
-6.21667327E+000	-1.17972755E+002	
-6.19595997E+000	-1.17981634E+002	
-6.17524666E+000	-1.17972897E+002	
-6.15453336E+000	-1.17970054E+002	
-6.13382005E+000	-1.17945865E+002	
-6.11310675E+000	-1.17949708E+002	
-6.09239344E+000	-1.17948438E+002	
-6.07168014E+000	-1.17900168E+002	
-6.05096683E+000	-1.17970167E+002	
-6.03025353E+000	-1.17989653E+002	
-6.00954022E+000	-1.17980977E+002	
-5.98882692E+000	-1.17933736E+002	
-5.96811361E+000	-1.17938222E+002	
-5.94740031E+000	-1.17985594E+002	
-5.92668700E+000	-1.18023759E+002	
-5.90597369E+000	-1.18040545E+002	
-5.88526039E+000	-1.18099452E+002	
-5.86454708E+000	-1.18117806E+002	
-5.84383378E+000	-1.18076224E+002	
-5.82312047E+000	-1.18092998E+002	
-5.80240717E+000	-1.18080600E+002	
-5.78169386E+000	-1.18095393E+002	
-5.76098056E+000	-1.18102161E+002	
-5.74026725E+000	-1.18104536E+002	
-5.71955395E+000	-1.18148820E+002	
-5.69884064E+000	-1.18162307E+002	
-5.67812734E+000	-1.18195550E+002	
-5.65741403E+000	-1.18191024E+002	
-5.63670073E+000	-1.18200786E+002	
-5.61598742E+000	-1.18167828E+002	
-5.59527412E+000	-1.18126824E+002	
-5.57456081E+000	-1.18186016E+002	
-5.55384750E+000	-1.18104642E+002	
-5.53313420E+000	-1.18028439E+002	
-5.51242089E+000	-1.18037275E+002	
-5.49170759E+000	-1.18027061E+002	
-5.47099428E+000	-1.17992543E+002	
-5.45028098E+000	-1.18048364E+002	
-5.42956767E+000	-1.18095146E+002	
-5.40885437E+000	-1.18080467E+002	
-5.38814106E+000	-1.18065960E+002	
-5.36742776E+000	-1.18043282E+002	
-5.34671445E+000	-1.18078857E+002	
-5.32600115E+000	-1.18076290E+002	
-5.30528784E+000	-1.18085592E+002	
-5.28457454E+000	-1.18053335E+002	
-5.26386123E+000	-1.18045709E+002	
-5.24314792E+000	-1.17988194E+002	
-5.22243462E+000	-1.17958887E+002	
-5.20172131E+000	-1.17956215E+002	
-5.18100801E+000	-1.17900052E+002	
-5.16029470E+000	-1.17891246E+002	
-5.13958140E+000	-1.17850091E+002	
-5.11886809E+000	-1.17831002E+002	
-5.09815479E+000	-1.17836132E+002	
-5.07744148E+000	-1.17803006E+002	
-5.05672818E+000	-1.17864547E+002	
-5.03601487E+000	-1.17884141E+002	
-5.01530157E+000	-1.17917145E+002	
-4.99458826E+000	-1.17935120E+002	
-4.97387496E+000	-1.17900945E+002	
-4.95316165E+000	-1.17896846E+002	
-4.93244834E+000	-1.17849816E+002	
-4.91173504E+000	-1.17837769E+002	
-4.89102173E+000	-1.17832482E+002	
-4.87030843E+000	-1.17868743E+002	
-4.84959512E+000	-1.17858139E+002	
-4.82888182E+000	-1.17825025E+002	
-4.80816851E+000	-1.17814606E+002	
-4.78745521E+000	-1.17833162E+002	
-4.76674190E+000	-1.17857131E+002	
-4.74602860E+000	-1.17873155E+002	
-4.72531529E+000	-1.17919841E+002	
-4.70460199E+000	-1.17908277E+002	
-4.68388868E+000	-1.17960166E+002	
-4.66317538E+000	-1.17951999E+002	
-4.64246207E+000	-1.17987585E+002	
-4.62174877E+000	-1.18027023E+002	
-4.60103546E+000	-1.18075033E+002	
-4.58032215E+000	-1.18099850E+002	
-4.55960885E+000	-1.18073649E+002	
-4.53889554E+000	-1.18102452E+002	
-4.51818224E+000	-1.18027460E+002	
-4.49746893E+000	-1.17980966E+002	
-4.47675563E+000	-1.18029611E+002	
-4.45604232E+000	-1.18016205E+002	
-4.43532902E+000	-1.18015769E+002	
-4.41461571E+000	-1.18000859E+002	
-4.39390241E+000	-1.18018720E+002	
-4.37318910E+000	-1.18017234E+002	
-4.35247580E+000	-1.17989068E+002	
-4.33176249E+000	-1.17974867E+002	
-4.31104919E+000	-1.17975603E+002	
-4.29033588E+000	-1.17971158E+002	
-4.26962257E+000	-1.17966049E+002	
-4.24890927E+000	-1.18014682E+002	
-4.22819596E+000	-1.18035158E+002	
-4.20748266E+000	-1.18081372E+002	
-4.18676935E+000	-1.18035378E+002	
-4.16605605E+000	-1.18053072E+002	
-4.14534274E+000	-1.18072637E+002	
-4.12462944E+000	-1.18037743E+002	
-4.10391613E+000	-1.18026931E+002	
-4.08320283E+000	-1.18020152E+002	
-4.06248952E+000	-1.18011544E+002	
-4.04177622E+000	-1.17974698E+002	
-4.02106291E+000	-1.18018719E+002	
-4.00034961E+000	-1.18027045E+002	
-3.97963630E+000	-1.17989103E+002	
-3.95892299E+000	-1.18003587E+002	
-3.93820969E+000	-1.17983811E+002	
-3.91749638E+000	-1.18003072E+002	
-3.89678308E+000	-1.17971033E+002	
-3.87606977E+000	-1.17898757E+002	
-3.85535647E+000	-1.17905134E+002	
-3.83464316E+000	-1.17907758E+002	
-3.81392986E+000	-1.17897083E+002	
-3.79321655E+000	-1.17924014E+002	
-3.77250325E+000	-1.17857328E+002	
-3.75178994E+000	-1.17860877E+002	
-3.73107664E+000	-1.17866272E+002	
-3.71036333E+000	-1.17799181E+002	
-3.68965003E+000	-1.17825215E+002	
-3.66893672E+000	-1.17869657E+002	
-3.64822342E+000	-1.17834713E+002	
-3.62751011E+000	-1.17849207E+002	
-3.60679680E+000	-1.17848055E+002	
-3.58608350E+000	-1.17845312E+002	
-3.56537019E+000	-1.17870945E+002	
-3.54465689E+000	-1.17883936E+002	
-3.52394358E+000	-1.17910295E+002	
-3.50323028E+000	-1.17949401E+002	
-3.48251697E+000	-1.17982024E+002	
-3.46180367E+000	-1.18002650E+002	
-3.44109036E+000	-1.18018046E+002	
-3.42037706E+000	-1.18050810E+002	
-3.39966375E+000	-1.18077314E+002	
-3.37895045E+000	-1.18127425E+002	
-3.35823714E+000	-1.18122737E+002	
-3.33752384E+000	-1.18124788E+002	
-3.31681053E+000	-1.18138416E+002	
-3.29609722E+000	-1.18112137E+002	
-3.27538392E+000	-1.18132803E+002	
-3.25467061E+000	-1.18137629E+002	
-3.23395731E+000	-1.18120928E+002	
-3.21324400E+000	-1.18143994E+002	
-3.19253070E+000	-1.18143826E+002	
-3.17181739E+000	-1.18117224E+002	
-3.15110409E+000	-1.18094799E+002	
-3.13039078E+000	-1.18084121E+002	
-3.10967748E+000	-1.18119421E+002	
-3.08896417E+000	-1.18105973E+002	
-3.06825087E+000	-1.18090979E+002	
-3.04753756E+000	-1.18106331E+002	
-3.02682426E+000	-1.18071337E+002	
-3.00611095E+000	-1.17999278E+002	
-2.98539764E+000	-1.18040454E+002	
-2.96468434E+000	-1.18011519E+002	
-2.94397103E+000	-1.17982866E+002	
-2.92325773E+000	-1.17943314E+002	
-2.90254442E+000	-1.17947369E+002	
-2.88183112E+000	-1.17962518E+002	
-2.86111781E+000	-1.18009403E+002	
-2.84040451E+000	-1.18051449E+002	
-2.81969120E+000	-1.18083337E+002	
-2.79897790E+000	-1.18147606E+002	
-2.77826459E+000	-1.18104437E+002	
-2.75755129E+000	-1.18079817E+002	
-2.73683798E+000	-1.18092489E+002	
-2.71612468E+000	-1.18044310E+002	
-2.69541137E+000	-1.18023851E+002	
-2.67469807E+000	-1.18082203E+002	
-2.65398476E+000	-1.18105253E+002	
-2.63327145E+000	-1.18103323E+002	
-2.61255815E+000	-1.18050276E+002	
-2.59184484E+000	-1.18052644E+002	
-2.57113154E+000	-1.18046976E+002	
-2.55041823E+000	-1.18043236E+002	
-2.52970493E+000	-1.18096351E+002	
-2.50899162E+000	-1.18166586E+002	
-2.48827832E+000	-1.18146246E+002	
-2.46756501E+000	-1.18141866E+002	
-2.44685171E+000	-1.18142680E+002	
-2.42613840E+000	-1.18164962E+002	
-2.40542510E+000	-1.18178574E+002	
-2.38471179E+000	-1.18155817E+002	
-2.36399849E+000	-1.18134175E+002	
-2.34328518E+000	-1.18084169E+002	
-2.32257187E+000	-1.18034263E+002	
-2.30185857E+000	-1.17962802E+002	
-2.28114526E+000	-1.17984090E+002	
-2.26043196E+000	-1.18058868E+002	
-2.23971865E+000	-1.18046253E+002	
-2.21900535E+000	-1.18103841E+002	
-2.19829204E+000	-1.18129647E+002	
-2.17757874E+000	-1.18087537E+002	
-2.15686543E+000	-1.18070230E+002	
-2.13615213E+000	-1.18118502E+002	
-2.11543882E+000	-1.18121666E+002	
-2.09472552E+000	-1.18133411E+002	
-2.07401221E+000	-1.18107712E+002	
-2.05329891E+000	-1.18061670E+002	
-2.03258560E+000	-1.18065351E+002	
-2.01187229E+000	-1.18058471E+002	
-1.99115899E+000	-1.18066906E+002	
-1.97044568E+000	-1.18001538E+002	
-1.94973238E+000	-1.18019493E+002	
-1.92901907E+000	-1.18006666E+002	
-1.90830577E+000	-1.17957458E+002	
-1.88759246E+000	-1.17953230E+002	
-1.86687916E+000	-1.17986403E+002	
-1.84616585E+000	-1.17953705E+002	
-1.82545255E+000	-1.18029714E+002	
-1.80473924E+000	-1.18038687E+002	
-1.78402594E+000	-1.18075326E+002	
-1.76331263E+000	-1.18073496E+002	
-1.74259933E+000	-1.18025572E+002	
-1.72188602E+000	-1.18022894E+002	
-1.70117272E+000	-1.18090783E+002	
-1.68045941E+000	-1.18117197E+002	
-1.65974610E+000	-1.18074709E+002	
-1.63903280E+000	-1.18038872E+002	
-1.61831949E+000	-1.18098797E+002	
-1.59760619E+000	-1.18111055E+002	
-1.57689288E+000	-1.18122243E+002	
-1.55617958E+000	-1.18178319E+002	
-1.53546627E+000	-1.18170874E+002	
-1.51475297E+000	-1.18180581E+002	
-1.49403966E+000	-1.18154250E+002	
-1.47332636E+000	-1.18206286E+002	
-1.45261305E+000	-1.18170401E+002	
-1.43189975E+000	-1.18163446E+002	
-1.41118644E+000	-1.18156756E+002	
-1.39047314E+000	-1.18181633E+002	
-1.36975983E+000	-1.18142496E+002	
-1.34904652E+000	-1.18146684E+002	
-1.32833322E+000	-1.18105386E+002	
-1.30761991E+000	-1.18058579E+002	
-1.28690661E+000	-1.18064551E+002	
-1.26619330E+000	-1.18054423E+002	
-1.24548000E+000	-1.18108635E+002	
-1.22476669E+000	-1.18131188E+002	
-1.20405339E+000	-1.18029593E+002	
-1.18334008E+000	-1.18020506E+002	
-1.16262678E+000	-1.18093833E+002	
-1.14191347E+000	-1.18122253E+002	
-1.12120017E+000	-1.18113572E+002	
-1.10048686E+000	-1.18087997E+002	
-1.07977356E+000	-1.18097112E+002	
-1.05906025E+000	-1.18135188E+002	
-1.03834694E+000	-1.18114224E+002	
-1.01763364E+000	-1.18048155E+002	
-9.96920334E-001	-1.17960900E+002	
-9.76207029E-001	-1.17919806E+002	
-9.55493724E-001	-1.17940070E+002	
-9.34780418E-001	-1.17961279E+002	
-9.14067113E-001	-1.18005891E+002	
-8.93353808E-001	-1.17990033E+002	
-8.72640502E-001	-1.17967707E+002	
-8.51927197E-001	-1.17994596E+002	
-8.31213892E-001	-1.18024672E+002	
-8.10500586E-001	-1.18084058E+002	
-7.89787281E-001	-1.18101707E+002	
-7.69073976E-001	-1.18113185E+002	
-7.48360671E-001	-1.18096339E+002	
-7.27647365E-001	-1.18088615E+002	
-7.06934060E-001	-1.18118229E+002	
-6.86220755E-001	-1.18137712E+002	
-6.65507449E-001	-1.18162470E+002	
-6.44794144E-001	-1.18159120E+002	
-6.24080839E-001	-1.18127355E+002	
-6.03367533E-001	-1.18125396E+002	
-5.82654228E-001	-1.18100213E+002	
-5.61940923E-001	-1.18049590E+002	
-5.41227617E-001	-1.18010478E+002	
-5.20514312E-001	-1.18038811E+002	
-4.99801007E-001	-1.18140894E+002	
-4.79087701E-001	-1.18220397E+002	
-4.58374396E-001	-1.18251595E+002	
-4.37661091E-001	-1.18214627E+002	
-4.16947785E-001	-1.18189904E+002	
-3.96234480E-001	-1.18196773E+002	
-3.75521175E-001	-1.18203091E+002	
-3.54807869E-001	-1.18216694E+002	
-3.34094564E-001	-1.18222973E+002	
-3.13381259E-001	-1.18238684E+002	
-2.92667954E-001	-1.18194225E+002	
-2.71954648E-001	-1.17977516E+002	
-2.51241343E-001	-8.60408293E+001	
-2.30528038E-001	-8.57032134E+001	
-2.09814732E-001	-8.57031815E+001	
-1.89101427E-001	-8.57031843E+001	
-1.68388122E-001	-8.57031780E+001	
-1.47674816E-001	-8.57031532E+001	
-1.26961511E-001	-8.57030776E+001	
-1.06248206E-001	-8.57030256E+001	
-8.55349003E-002	-8.57030439E+001	
-6.48215950E-002	-8.57030786E+001	
-4.41082897E-002	-8.57031381E+001	
-2.33949844E-002	-8.57031705E+001	
-2.68167905E-003	-8.57031897E+001	
1.80316263E-002	-8.57031865E+001	
3.87449316E-002	-8.57031986E+001	
5.94582369E-002	-8.57032445E+001	
8.01715422E-002	-8.57032743E+001	
1.00884848E-001	-8.57032947E+001	
1.21598153E-001	-8.57033422E+001	
1.42311458E-001	-8.57033525E+001	
1.63024763E-001	-8.57033621E+001	
1.83738069E-001	-8.57033520E+001	
2.04451374E-001	-8.57033561E+001	
2.25164679E-001	-8.57034357E+001	
2.45877985E-001	-9.22128080E+001	
2.66591290E-001	-1.18480791E+002	
2.87304595E-001	-1.18587480E+002	
3.08017901E-001	-1.18624857E+002	
3.28731206E-001	-1.18585715E+002	
3.49444511E-001	-1.18609737E+002	
3.70157817E-001	-1.18752707E+002	
3.90871122E-001	-1.18885105E+002	
4.11584427E-001	-1.18918518E+002	
4.32297733E-001	-1.18940488E+002	
4.53011038E-001	-1.18955201E+002	
4.73724343E-001	-1.18936296E+002	
4.94437649E-001	-1.18902760E+002	
5.15150954E-001	-1.18911302E+002	
5.35864259E-001	-1.18867361E+002	
5.56577565E-001	-1.18809588E+002	
5.77290870E-001	-1.18837380E+002	
5.98004175E-001	-1.18873315E+002	
6.18717481E-001	-1.18826130E+002	
6.39430786E-001	-1.18810558E+002	
6.60144091E-001	-1.18841599E+002	
6.80857396E-001	-1.18866376E+002	
7.01570702E-001	-1.18900265E+002	
7.22284007E-001	-1.18917130E+002	
7.42997312E-001	-1.18916855E+002	
7.63710618E-001	-1.18896869E+002	
7.84423923E-001	-1.18883751E+002	
8.05137228E-001	-1.18879381E+002	
8.25850534E-001	-1.18910930E+002	
8.46563839E-001	-1.18906501E+002	
8.67277144E-001	-1.18946731E+002	
8.87990450E-001	-1.18975881E+002	
9.08703755E-001	-1.18954494E+002	
9.29417060E-001	-1.18927202E+002	
9.50130366E-001	-1.18931348E+002	
9.70843671E-001	-1.18929767E+002	
9.91556976E-001	-1.18994484E+002	
1.01227028E+000	-1.18995596E+002	
1.03298359E+000	-1.19041757E+002	
1.05369689E+000	-1.19117115E+002	
1.07441020E+000	-1.19111858E+002	
1.09512350E+000	-1.19056059E+002	
1.11583681E+000	-1.19029563E+002	
1.13655011E+000	-1.19064992E+002	
1.15726342E+000	-1.19054834E+002	
1.17797672E+000	-1.19080239E+002	
1.19869003E+000	-1.19090578E+002	
1.21940333E+000	-1.19109488E+002	
1.24011664E+000	-1.19117431E+002	
1.26082995E+000	-1.19084601E+002	
1.28154325E+000	-1.19114198E+002	
1.30225656E+000	-1.19141090E+002	
1.32296986E+000	-1.19122760E+002	
1.34368317E+000	-1.19194734E+002	
1.36439647E+000	-1.19228397E+002	
1.38510978E+000	-1.19257979E+002	
1.40582308E+000	-1.19299278E+002	
1.42653639E+000	-1.19293532E+002	
1.44724969E+000	-1.19254620E+002	
1.46796300E+000	-1.19261498E+002	
1.48867630E+000	-1.19256462E+002	
1.50938961E+000	-1.19252860E+002	
1.53010291E+000	-1.19216833E+002	
1.55081622E+000	-1.19155742E+002	
1.57152953E+000	-1.19098372E+002	
