Acquired on 8/13/2021 at 12:17:25
Calibrated on 8/13/2021 at 11:06:07
Device Descriptor:  [none]
Scan Range (nm):  1539.624  --  1560.517
Measurement Type:  Reflection
Group Index:  1.500
Gain:  24 dB
Domain:  Time
Spatial Resolution (mm):  50.000000
Frequency domain window was applied to measurement data.
Number of Data Points (in this file):  16384
NOTE: Data stored in this file is decimated by a factor of 64.

Time (ns)	Amplitude (dB)	
-1.00072081E+001	-1.20683662E+002	
-9.98649484E+000	-1.20348204E+002	
-9.96578154E+000	-1.19984480E+002	
-9.94506823E+000	-1.19717557E+002	
-9.92435493E+000	-1.19487877E+002	
-9.90364162E+000	-1.19240406E+002	
-9.88292832E+000	-1.19022775E+002	
-9.86221501E+000	-1.18810867E+002	
-9.84150171E+000	-1.18612173E+002	
-9.82078840E+000	-1.18430356E+002	
-9.80007509E+000	-1.18231504E+002	
-9.77936179E+000	-1.18034080E+002	
-9.75864848E+000	-1.17976629E+002	
-9.73793518E+000	-1.17988447E+002	
-9.71722187E+000	-1.17987979E+002	
-9.69650857E+000	-1.17985648E+002	
-9.67579526E+000	-1.18037333E+002	
-9.65508196E+000	-1.18026485E+002	
-9.63436865E+000	-1.17975149E+002	
-9.61365535E+000	-1.17977364E+002	
-9.59294204E+000	-1.18006809E+002	
-9.57222874E+000	-1.18031175E+002	
-9.55151543E+000	-1.18044126E+002	
-9.53080213E+000	-1.18031451E+002	
-9.51008882E+000	-1.18061395E+002	
-9.48937552E+000	-1.18091161E+002	
-9.46866221E+000	-1.18093731E+002	
-9.44794890E+000	-1.18066618E+002	
-9.42723560E+000	-1.18020109E+002	
-9.40652229E+000	-1.18022473E+002	
-9.38580899E+000	-1.17999197E+002	
-9.36509568E+000	-1.17989964E+002	
-9.34438238E+000	-1.17954634E+002	
-9.32366907E+000	-1.17929617E+002	
-9.30295577E+000	-1.17927125E+002	
-9.28224246E+000	-1.17944569E+002	
-9.26152916E+000	-1.17893102E+002	
-9.24081585E+000	-1.17837607E+002	
-9.22010255E+000	-1.17827691E+002	
-9.19938924E+000	-1.17866189E+002	
-9.17867594E+000	-1.17850341E+002	
-9.15796263E+000	-1.17846543E+002	
-9.13724932E+000	-1.17903047E+002	
-9.11653602E+000	-1.17906000E+002	
-9.09582271E+000	-1.17859612E+002	
-9.07510941E+000	-1.17870033E+002	
-9.05439610E+000	-1.17873923E+002	
-9.03368280E+000	-1.17747793E+002	
-9.01296949E+000	-1.17732158E+002	
-8.99225619E+000	-1.17729404E+002	
-8.97154288E+000	-1.17779189E+002	
-8.95082958E+000	-1.17798785E+002	
-8.93011627E+000	-1.17825484E+002	
-8.90940297E+000	-1.17846676E+002	
-8.88868966E+000	-1.17872954E+002	
-8.86797636E+000	-1.17864386E+002	
-8.84726305E+000	-1.17878513E+002	
-8.82654974E+000	-1.17865287E+002	
-8.80583644E+000	-1.17876472E+002	
-8.78512313E+000	-1.17873845E+002	
-8.76440983E+000	-1.17891599E+002	
-8.74369652E+000	-1.17950363E+002	
-8.72298322E+000	-1.17967560E+002	
-8.70226991E+000	-1.17897248E+002	
-8.68155661E+000	-1.17866924E+002	
-8.66084330E+000	-1.17903910E+002	
-8.64013000E+000	-1.17877596E+002	
-8.61941669E+000	-1.17833510E+002	
-8.59870339E+000	-1.17877199E+002	
-8.57799008E+000	-1.17873834E+002	
-8.55727678E+000	-1.17832399E+002	
-8.53656347E+000	-1.17954290E+002	
-8.51585017E+000	-1.17985903E+002	
-8.49513686E+000	-1.17991791E+002	
-8.47442355E+000	-1.17978226E+002	
-8.45371025E+000	-1.18007119E+002	
-8.43299694E+000	-1.18043378E+002	
-8.41228364E+000	-1.18004638E+002	
-8.39157033E+000	-1.17982305E+002	
-8.37085703E+000	-1.18030666E+002	
-8.35014372E+000	-1.18050479E+002	
-8.32943042E+000	-1.18073774E+002	
-8.30871711E+000	-1.18030550E+002	
-8.28800381E+000	-1.18070228E+002	
-8.26729050E+000	-1.18057190E+002	
-8.24657720E+000	-1.18055289E+002	
-8.22586389E+000	-1.18035499E+002	
-8.20515059E+000	-1.18080327E+002	
-8.18443728E+000	-1.18082924E+002	
-8.16372397E+000	-1.18063578E+002	
-8.14301067E+000	-1.18016187E+002	
-8.12229736E+000	-1.18034061E+002	
-8.10158406E+000	-1.18025302E+002	
-8.08087075E+000	-1.18017508E+002	
-8.06015745E+000	-1.18003947E+002	
-8.03944414E+000	-1.17947850E+002	
-8.01873084E+000	-1.17954087E+002	
-7.99801753E+000	-1.17936947E+002	
-7.97730423E+000	-1.17932230E+002	
-7.95659092E+000	-1.17901881E+002	
-7.93587762E+000	-1.17913094E+002	
-7.91516431E+000	-1.17956312E+002	
-7.89445101E+000	-1.17950846E+002	
-7.87373770E+000	-1.17927029E+002	
-7.85302439E+000	-1.17920671E+002	
-7.83231109E+000	-1.17896344E+002	
-7.81159778E+000	-1.17948891E+002	
-7.79088448E+000	-1.17972601E+002	
-7.77017117E+000	-1.17992853E+002	
-7.74945787E+000	-1.18006010E+002	
-7.72874456E+000	-1.18014006E+002	
-7.70803126E+000	-1.17978033E+002	
-7.68731795E+000	-1.18003143E+002	
-7.66660465E+000	-1.17997540E+002	
-7.64589134E+000	-1.17998030E+002	
-7.62517804E+000	-1.17980264E+002	
-7.60446473E+000	-1.17918720E+002	
-7.58375143E+000	-1.17934099E+002	
-7.56303812E+000	-1.17962230E+002	
-7.54232482E+000	-1.18028047E+002	
-7.52161151E+000	-1.18017097E+002	
-7.50089820E+000	-1.18036254E+002	
-7.48018490E+000	-1.18011234E+002	
-7.45947159E+000	-1.18051868E+002	
-7.43875829E+000	-1.17982573E+002	
-7.41804498E+000	-1.17895447E+002	
-7.39733168E+000	-1.17941491E+002	
-7.37661837E+000	-1.17953814E+002	
-7.35590507E+000	-1.17959565E+002	
-7.33519176E+000	-1.17979005E+002	
-7.31447846E+000	-1.17998635E+002	
-7.29376515E+000	-1.17973897E+002	
-7.27305185E+000	-1.17940520E+002	
-7.25233854E+000	-1.17970230E+002	
-7.23162524E+000	-1.17986357E+002	
-7.21091193E+000	-1.17979722E+002	
-7.19019862E+000	-1.17982695E+002	
-7.16948532E+000	-1.18033093E+002	
-7.14877201E+000	-1.18103386E+002	
-7.12805871E+000	-1.18160970E+002	
-7.10734540E+000	-1.18233134E+002	
-7.08663210E+000	-1.18271090E+002	
-7.06591879E+000	-1.18251648E+002	
-7.04520549E+000	-1.18242557E+002	
-7.02449218E+000	-1.18223690E+002	
-7.00377888E+000	-1.18190717E+002	
-6.98306557E+000	-1.18229329E+002	
-6.96235227E+000	-1.18186357E+002	
-6.94163896E+000	-1.18215023E+002	
-6.92092566E+000	-1.18288233E+002	
-6.90021235E+000	-1.18281621E+002	
-6.87949904E+000	-1.18253311E+002	
-6.85878574E+000	-1.18238713E+002	
-6.83807243E+000	-1.18263997E+002	
-6.81735913E+000	-1.18278957E+002	
-6.79664582E+000	-1.18232575E+002	
-6.77593252E+000	-1.18275816E+002	
-6.75521921E+000	-1.18230018E+002	
-6.73450591E+000	-1.18218510E+002	
-6.71379260E+000	-1.18186554E+002	
-6.69307930E+000	-1.18182219E+002	
-6.67236599E+000	-1.18133688E+002	
-6.65165269E+000	-1.18112697E+002	
-6.63093938E+000	-1.18134179E+002	
-6.61022608E+000	-1.18160552E+002	
-6.58951277E+000	-1.18153855E+002	
-6.56879947E+000	-1.18141253E+002	
-6.54808616E+000	-1.18122235E+002	
-6.52737285E+000	-1.18098616E+002	
-6.50665955E+000	-1.18122825E+002	
-6.48594624E+000	-1.18165108E+002	
-6.46523294E+000	-1.18206672E+002	
-6.44451963E+000	-1.18142590E+002	
-6.42380633E+000	-1.18102572E+002	
-6.40309302E+000	-1.18104668E+002	
-6.38237972E+000	-1.18079544E+002	
-6.36166641E+000	-1.18077826E+002	
-6.34095311E+000	-1.18080928E+002	
-6.32023980E+000	-1.18074916E+002	
-6.29952650E+000	-1.18087546E+002	
-6.27881319E+000	-1.18063621E+002	
-6.25809989E+000	-1.18074163E+002	
-6.23738658E+000	-1.18067466E+002	
-6.21667327E+000	-1.18057153E+002	
-6.19595997E+000	-1.18067027E+002	
-6.17524666E+000	-1.18059715E+002	
-6.15453336E+000	-1.18060414E+002	
-6.13382005E+000	-1.18037164E+002	
-6.11310675E+000	-1.18036933E+002	
-6.09239344E+000	-1.18035550E+002	
-6.07168014E+000	-1.17989867E+002	
-6.05096683E+000	-1.18052771E+002	
-6.03025353E+000	-1.18061445E+002	
-6.00954022E+000	-1.18049640E+002	
-5.98882692E+000	-1.17998462E+002	
-5.96811361E+000	-1.18008795E+002	
-5.94740031E+000	-1.18056497E+002	
-5.92668700E+000	-1.18093790E+002	
-5.90597369E+000	-1.18099863E+002	
-5.88526039E+000	-1.18148415E+002	
-5.86454708E+000	-1.18171581E+002	
-5.84383378E+000	-1.18134820E+002	
-5.82312047E+000	-1.18154956E+002	
-5.80240717E+000	-1.18127459E+002	
-5.78169386E+000	-1.18132777E+002	
-5.76098056E+000	-1.18123993E+002	
-5.74026725E+000	-1.18112817E+002	
-5.71955395E+000	-1.18148441E+002	
-5.69884064E+000	-1.18153856E+002	
-5.67812734E+000	-1.18186513E+002	
-5.65741403E+000	-1.18179836E+002	
-5.63670073E+000	-1.18191481E+002	
-5.61598742E+000	-1.18162015E+002	
-5.59527412E+000	-1.18126019E+002	
-5.57456081E+000	-1.18189060E+002	
-5.55384750E+000	-1.18111189E+002	
-5.53313420E+000	-1.18059889E+002	
-5.51242089E+000	-1.18070179E+002	
-5.49170759E+000	-1.18067868E+002	
-5.47099428E+000	-1.18041367E+002	
-5.45028098E+000	-1.18100004E+002	
-5.42956767E+000	-1.18140327E+002	
-5.40885437E+000	-1.18125287E+002	
-5.38814106E+000	-1.18108962E+002	
-5.36742776E+000	-1.18088639E+002	
-5.34671445E+000	-1.18117879E+002	
-5.32600115E+000	-1.18109741E+002	
-5.30528784E+000	-1.18123475E+002	
-5.28457454E+000	-1.18101955E+002	
-5.26386123E+000	-1.18098394E+002	
-5.24314792E+000	-1.18046822E+002	
-5.22243462E+000	-1.18016198E+002	
-5.20172131E+000	-1.18024417E+002	
-5.18100801E+000	-1.17969637E+002	
-5.16029470E+000	-1.17965315E+002	
-5.13958140E+000	-1.17921331E+002	
-5.11886809E+000	-1.17900862E+002	
-5.09815479E+000	-1.17906255E+002	
-5.07744148E+000	-1.17866962E+002	
-5.05672818E+000	-1.17928233E+002	
-5.03601487E+000	-1.17931996E+002	
-5.01530157E+000	-1.17969305E+002	
-4.99458826E+000	-1.17983190E+002	
-4.97387496E+000	-1.17927472E+002	
-4.95316165E+000	-1.17915221E+002	
-4.93244834E+000	-1.17871592E+002	
-4.91173504E+000	-1.17858488E+002	
-4.89102173E+000	-1.17855948E+002	
-4.87030843E+000	-1.17896046E+002	
-4.84959512E+000	-1.17874897E+002	
-4.82888182E+000	-1.17838661E+002	
-4.80816851E+000	-1.17827380E+002	
-4.78745521E+000	-1.17850458E+002	
-4.76674190E+000	-1.17882278E+002	
-4.74602860E+000	-1.17908296E+002	
-4.72531529E+000	-1.17958969E+002	
-4.70460199E+000	-1.17945730E+002	
-4.68388868E+000	-1.18000571E+002	
-4.66317538E+000	-1.17991160E+002	
-4.64246207E+000	-1.18025771E+002	
-4.62174877E+000	-1.18067194E+002	
-4.60103546E+000	-1.18109524E+002	
-4.58032215E+000	-1.18133977E+002	
-4.55960885E+000	-1.18110433E+002	
-4.53889554E+000	-1.18143079E+002	
-4.51818224E+000	-1.18065274E+002	
-4.49746893E+000	-1.18018078E+002	
-4.47675563E+000	-1.18075046E+002	
-4.45604232E+000	-1.18071955E+002	
-4.43532902E+000	-1.18071488E+002	
-4.41461571E+000	-1.18058872E+002	
-4.39390241E+000	-1.18080439E+002	
-4.37318910E+000	-1.18073825E+002	
-4.35247580E+000	-1.18054188E+002	
-4.33176249E+000	-1.18049444E+002	
-4.31104919E+000	-1.18045993E+002	
-4.29033588E+000	-1.18035092E+002	
-4.26962257E+000	-1.18030453E+002	
-4.24890927E+000	-1.18077057E+002	
-4.22819596E+000	-1.18097171E+002	
-4.20748266E+000	-1.18140201E+002	
-4.18676935E+000	-1.18095347E+002	
-4.16605605E+000	-1.18110117E+002	
-4.14534274E+000	-1.18132504E+002	
-4.12462944E+000	-1.18093559E+002	
-4.10391613E+000	-1.18082891E+002	
-4.08320283E+000	-1.18068244E+002	
-4.06248952E+000	-1.18059675E+002	
-4.04177622E+000	-1.18027888E+002	
-4.02106291E+000	-1.18069347E+002	
-4.00034961E+000	-1.18070271E+002	
-3.97963630E+000	-1.18028509E+002	
-3.95892299E+000	-1.18033964E+002	
-3.93820969E+000	-1.18009099E+002	
-3.91749638E+000	-1.18030675E+002	
-3.89678308E+000	-1.17997237E+002	
-3.87606977E+000	-1.17926313E+002	
-3.85535647E+000	-1.17926890E+002	
-3.83464316E+000	-1.17927034E+002	
-3.81392986E+000	-1.17921361E+002	
-3.79321655E+000	-1.17949419E+002	
-3.77250325E+000	-1.17884411E+002	
-3.75178994E+000	-1.17883139E+002	
-3.73107664E+000	-1.17886931E+002	
-3.71036333E+000	-1.17820911E+002	
-3.68965003E+000	-1.17844372E+002	
-3.66893672E+000	-1.17885144E+002	
-3.64822342E+000	-1.17845499E+002	
-3.62751011E+000	-1.17863414E+002	
-3.60679680E+000	-1.17861038E+002	
-3.58608350E+000	-1.17865431E+002	
-3.56537019E+000	-1.17892817E+002	
-3.54465689E+000	-1.17900830E+002	
-3.52394358E+000	-1.17926279E+002	
-3.50323028E+000	-1.17965734E+002	
-3.48251697E+000	-1.18004942E+002	
-3.46180367E+000	-1.18034042E+002	
-3.44109036E+000	-1.18055891E+002	
-3.42037706E+000	-1.18090227E+002	
-3.39966375E+000	-1.18118817E+002	
-3.37895045E+000	-1.18167896E+002	
-3.35823714E+000	-1.18169188E+002	
-3.33752384E+000	-1.18173411E+002	
-3.31681053E+000	-1.18184994E+002	
-3.29609722E+000	-1.18157895E+002	
-3.27538392E+000	-1.18175356E+002	
-3.25467061E+000	-1.18182072E+002	
-3.23395731E+000	-1.18167450E+002	
-3.21324400E+000	-1.18187113E+002	
-3.19253070E+000	-1.18187515E+002	
-3.17181739E+000	-1.18162787E+002	
-3.15110409E+000	-1.18138910E+002	
-3.13039078E+000	-1.18123321E+002	
-3.10967748E+000	-1.18159203E+002	
-3.08896417E+000	-1.18141559E+002	
-3.06825087E+000	-1.18129905E+002	
-3.04753756E+000	-1.18145931E+002	
-3.02682426E+000	-1.18109166E+002	
-3.00611095E+000	-1.18043761E+002	
-2.98539764E+000	-1.18084239E+002	
-2.96468434E+000	-1.18045011E+002	
-2.94397103E+000	-1.18016076E+002	
-2.92325773E+000	-1.17973434E+002	
-2.90254442E+000	-1.17978738E+002	
-2.88183112E+000	-1.17993460E+002	
-2.86111781E+000	-1.18038640E+002	
-2.84040451E+000	-1.18076436E+002	
-2.81969120E+000	-1.18114547E+002	
-2.79897790E+000	-1.18175030E+002	
-2.77826459E+000	-1.18131231E+002	
-2.75755129E+000	-1.18107684E+002	
-2.73683798E+000	-1.18124000E+002	
-2.71612468E+000	-1.18087253E+002	
-2.69541137E+000	-1.18069327E+002	
-2.67469807E+000	-1.18128015E+002	
-2.65398476E+000	-1.18151896E+002	
-2.63327145E+000	-1.18149959E+002	
-2.61255815E+000	-1.18091232E+002	
-2.59184484E+000	-1.18098086E+002	
-2.57113154E+000	-1.18091212E+002	
-2.55041823E+000	-1.18092201E+002	
-2.52970493E+000	-1.18148285E+002	
-2.50899162E+000	-1.18215167E+002	
-2.48827832E+000	-1.18190233E+002	
-2.46756501E+000	-1.18190508E+002	
-2.44685171E+000	-1.18192744E+002	
-2.42613840E+000	-1.18215477E+002	
-2.40542510E+000	-1.18225342E+002	
-2.38471179E+000	-1.18201691E+002	
-2.36399849E+000	-1.18176410E+002	
-2.34328518E+000	-1.18130689E+002	
-2.32257187E+000	-1.18078386E+002	
-2.30185857E+000	-1.18006170E+002	
-2.28114526E+000	-1.18025311E+002	
-2.26043196E+000	-1.18100235E+002	
-2.23971865E+000	-1.18082433E+002	
-2.21900535E+000	-1.18133793E+002	
-2.19829204E+000	-1.18154867E+002	
-2.17757874E+000	-1.18114811E+002	
-2.15686543E+000	-1.18100580E+002	
-2.13615213E+000	-1.18152216E+002	
-2.11543882E+000	-1.18160163E+002	
-2.09472552E+000	-1.18171671E+002	
-2.07401221E+000	-1.18139065E+002	
-2.05329891E+000	-1.18082610E+002	
-2.03258560E+000	-1.18087778E+002	
-2.01187229E+000	-1.18081763E+002	
-1.99115899E+000	-1.18084283E+002	
-1.97044568E+000	-1.18012452E+002	
-1.94973238E+000	-1.18022160E+002	
-1.92901907E+000	-1.17999832E+002	
-1.90830577E+000	-1.17951497E+002	
-1.88759246E+000	-1.17948491E+002	
-1.86687916E+000	-1.17982365E+002	
-1.84616585E+000	-1.17955495E+002	
-1.82545255E+000	-1.18028927E+002	
-1.80473924E+000	-1.18038989E+002	
-1.78402594E+000	-1.18079804E+002	
-1.76331263E+000	-1.18077201E+002	
-1.74259933E+000	-1.18031894E+002	
-1.72188602E+000	-1.18030974E+002	
-1.70117272E+000	-1.18101080E+002	
-1.68045941E+000	-1.18126796E+002	
-1.65974610E+000	-1.18087974E+002	
-1.63903280E+000	-1.18047735E+002	
-1.61831949E+000	-1.18110120E+002	
-1.59760619E+000	-1.18125942E+002	
-1.57689288E+000	-1.18141623E+002	
-1.55617958E+000	-1.18202460E+002	
-1.53546627E+000	-1.18190729E+002	
-1.51475297E+000	-1.18196463E+002	
-1.49403966E+000	-1.18175743E+002	
-1.47332636E+000	-1.18230018E+002	
-1.45261305E+000	-1.18202646E+002	
-1.43189975E+000	-1.18211705E+002	
-1.41118644E+000	-1.18208889E+002	
-1.39047314E+000	-1.18235281E+002	
-1.36975983E+000	-1.18199823E+002	
-1.34904652E+000	-1.18197768E+002	
-1.32833322E+000	-1.18148815E+002	
-1.30761991E+000	-1.18100578E+002	
-1.28690661E+000	-1.18108496E+002	
-1.26619330E+000	-1.18098905E+002	
-1.24548000E+000	-1.18149714E+002	
-1.22476669E+000	-1.18169090E+002	
-1.20405339E+000	-1.18066180E+002	
-1.18334008E+000	-1.18053226E+002	
-1.16262678E+000	-1.18118228E+002	
-1.14191347E+000	-1.18153493E+002	
-1.12120017E+000	-1.18142320E+002	
-1.10048686E+000	-1.18110549E+002	
-1.07977356E+000	-1.18115759E+002	
-1.05906025E+000	-1.18154265E+002	
-1.03834694E+000	-1.18131609E+002	
-1.01763364E+000	-1.18068526E+002	
-9.96920334E-001	-1.17979782E+002	
-9.76207029E-001	-1.17937867E+002	
-9.55493724E-001	-1.17951765E+002	
-9.34780418E-001	-1.17963740E+002	
-9.14067113E-001	-1.17999405E+002	
-8.93353808E-001	-1.17980872E+002	
-8.72640502E-001	-1.17956296E+002	
-8.51927197E-001	-1.17982538E+002	
-8.31213892E-001	-1.18016654E+002	
-8.10500586E-001	-1.18075816E+002	
-7.89787281E-001	-1.18088930E+002	
-7.69073976E-001	-1.18097961E+002	
-7.48360671E-001	-1.18085280E+002	
-7.27647365E-001	-1.18082169E+002	
-7.06934060E-001	-1.18113666E+002	
-6.86220755E-001	-1.18138380E+002	
-6.65507449E-001	-1.18167207E+002	
-6.44794144E-001	-1.18158894E+002	
-6.24080839E-001	-1.18119315E+002	
-6.03367533E-001	-1.18119715E+002	
-5.82654228E-001	-1.18092520E+002	
-5.61940923E-001	-1.18043235E+002	
-5.41227617E-001	-1.18008208E+002	
-5.20514312E-001	-1.18034821E+002	
-4.99801007E-001	-1.18141383E+002	
-4.79087701E-001	-1.18221902E+002	
-4.58374396E-001	-1.18251482E+002	
-4.37661091E-001	-1.18217781E+002	
-4.16947785E-001	-1.18197270E+002	
-3.96234480E-001	-1.18203744E+002	
-3.75521175E-001	-1.18208592E+002	
-3.54807869E-001	-1.18218269E+002	
-3.34094564E-001	-1.18222671E+002	
-3.13381259E-001	-1.18240026E+002	
-2.92667954E-001	-1.18206770E+002	
-2.71954648E-001	-1.17991166E+002	
-2.51241343E-001	-8.60148387E+001	
-2.30528038E-001	-8.56740926E+001	
-2.09814732E-001	-8.56740451E+001	
-1.89101427E-001	-8.56740448E+001	
-1.68388122E-001	-8.56740387E+001	
-1.47674816E-001	-8.56740146E+001	
-1.26961511E-001	-8.56739457E+001	
-1.06248206E-001	-8.56738925E+001	
-8.55349003E-002	-8.56739157E+001	
-6.48215950E-002	-8.56739503E+001	
-4.41082897E-002	-8.56740103E+001	
-2.33949844E-002	-8.56740427E+001	
-2.68167905E-003	-8.56740620E+001	
1.80316263E-002	-8.56740542E+001	
3.87449316E-002	-8.56740677E+001	
5.94582369E-002	-8.56741154E+001	
8.01715422E-002	-8.56741449E+001	
1.00884848E-001	-8.56741643E+001	
1.21598153E-001	-8.56742121E+001	
1.42311458E-001	-8.56742224E+001	
1.63024763E-001	-8.56742329E+001	
1.83738069E-001	-8.56742227E+001	
2.04451374E-001	-8.56742194E+001	
2.25164679E-001	-8.56743092E+001	
2.45877985E-001	-9.21707750E+001	
2.66591290E-001	-1.18457208E+002	
2.87304595E-001	-1.18591724E+002	
3.08017901E-001	-1.18630355E+002	
3.28731206E-001	-1.18586233E+002	
3.49444511E-001	-1.18615021E+002	
3.70157817E-001	-1.18753274E+002	
3.90871122E-001	-1.18881373E+002	
4.11584427E-001	-1.18903253E+002	
4.32297733E-001	-1.18924427E+002	
4.53011038E-001	-1.18934705E+002	
4.73724343E-001	-1.18910714E+002	
4.94437649E-001	-1.18867037E+002	
5.15150954E-001	-1.18886333E+002	
5.35864259E-001	-1.18848247E+002	
5.56577565E-001	-1.18793031E+002	
5.77290870E-001	-1.18818308E+002	
5.98004175E-001	-1.18853503E+002	
6.18717481E-001	-1.18810367E+002	
6.39430786E-001	-1.18793538E+002	
6.60144091E-001	-1.18827717E+002	
6.80857396E-001	-1.18859363E+002	
7.01570702E-001	-1.18891143E+002	
7.22284007E-001	-1.18912918E+002	
7.42997312E-001	-1.18912816E+002	
7.63710618E-001	-1.18888208E+002	
7.84423923E-001	-1.18877921E+002	
8.05137228E-001	-1.18871173E+002	
8.25850534E-001	-1.18901908E+002	
8.46563839E-001	-1.18897951E+002	
8.67277144E-001	-1.18940271E+002	
8.87990450E-001	-1.18980072E+002	
9.08703755E-001	-1.18962311E+002	
9.29417060E-001	-1.18931386E+002	
9.50130366E-001	-1.18931330E+002	
9.70843671E-001	-1.18932588E+002	
9.91556976E-001	-1.19002531E+002	
1.01227028E+000	-1.19005135E+002	
1.03298359E+000	-1.19042278E+002	
1.05369689E+000	-1.19119566E+002	
1.07441020E+000	-1.19117349E+002	
1.09512350E+000	-1.19067260E+002	
1.11583681E+000	-1.19036318E+002	
1.13655011E+000	-1.19074541E+002	
1.15726342E+000	-1.19070741E+002	
1.17797672E+000	-1.19091463E+002	
1.19869003E+000	-1.19102624E+002	
1.21940333E+000	-1.19118744E+002	
1.24011664E+000	-1.19120527E+002	
1.26082995E+000	-1.19086028E+002	
1.28154325E+000	-1.19120531E+002	
1.30225656E+000	-1.19156280E+002	
1.32296986E+000	-1.19141611E+002	
1.34368317E+000	-1.19205613E+002	
1.36439647E+000	-1.19238755E+002	
1.38510978E+000	-1.19265734E+002	
1.40582308E+000	-1.19299779E+002	
1.42653639E+000	-1.19296972E+002	
1.44724969E+000	-1.19261662E+002	
1.46796300E+000	-1.19268886E+002	
1.48867630E+000	-1.19269200E+002	
1.50938961E+000	-1.19263452E+002	
1.53010291E+000	-1.19228559E+002	
1.55081622E+000	-1.19161662E+002	
1.57152953E+000	-1.19097464E+002	
