Acquired on 8/13/2021 at 13:03:07
Calibrated on 8/13/2021 at 11:06:07
Device Descriptor:  [none]
Scan Range (nm):  1539.624  --  1560.517
Measurement Type:  Reflection
Group Index:  1.500
Gain:  24 dB
Domain:  Time
Spatial Resolution (mm):  50.000000
Frequency domain window was applied to measurement data.
Number of Data Points (in this file):  16384
NOTE: Data stored in this file is decimated by a factor of 64.

Time (ns)	Amplitude (dB)	
-1.00072081E+001	-1.20733430E+002	
-9.98649484E+000	-1.20402358E+002	
-9.96578154E+000	-1.20054952E+002	
-9.94506823E+000	-1.19791284E+002	
-9.92435493E+000	-1.19556227E+002	
-9.90364162E+000	-1.19310800E+002	
-9.88292832E+000	-1.19092394E+002	
-9.86221501E+000	-1.18880719E+002	
-9.84150171E+000	-1.18679633E+002	
-9.82078840E+000	-1.18498270E+002	
-9.80007509E+000	-1.18298989E+002	
-9.77936179E+000	-1.18103324E+002	
-9.75864848E+000	-1.18044291E+002	
-9.73793518E+000	-1.18053844E+002	
-9.71722187E+000	-1.18050757E+002	
-9.69650857E+000	-1.18055021E+002	
-9.67579526E+000	-1.18113933E+002	
-9.65508196E+000	-1.18093937E+002	
-9.63436865E+000	-1.18043288E+002	
-9.61365535E+000	-1.18045107E+002	
-9.59294204E+000	-1.18071784E+002	
-9.57222874E+000	-1.18096256E+002	
-9.55151543E+000	-1.18105908E+002	
-9.53080213E+000	-1.18101728E+002	
-9.51008882E+000	-1.18133841E+002	
-9.48937552E+000	-1.18157462E+002	
-9.46866221E+000	-1.18150682E+002	
-9.44794890E+000	-1.18119793E+002	
-9.42723560E+000	-1.18074887E+002	
-9.40652229E+000	-1.18074192E+002	
-9.38580899E+000	-1.18050384E+002	
-9.36509568E+000	-1.18039406E+002	
-9.34438238E+000	-1.18006087E+002	
-9.32366907E+000	-1.17982480E+002	
-9.30295577E+000	-1.17977335E+002	
-9.28224246E+000	-1.17990654E+002	
-9.26152916E+000	-1.17947721E+002	
-9.24081585E+000	-1.17897402E+002	
-9.22010255E+000	-1.17889286E+002	
-9.19938924E+000	-1.17925789E+002	
-9.17867594E+000	-1.17913024E+002	
-9.15796263E+000	-1.17919933E+002	
-9.13724932E+000	-1.17983477E+002	
-9.11653602E+000	-1.17989099E+002	
-9.09582271E+000	-1.17943430E+002	
-9.07510941E+000	-1.17953375E+002	
-9.05439610E+000	-1.17959472E+002	
-9.03368280E+000	-1.17832567E+002	
-9.01296949E+000	-1.17816209E+002	
-8.99225619E+000	-1.17820231E+002	
-8.97154288E+000	-1.17871717E+002	
-8.95082958E+000	-1.17889938E+002	
-8.93011627E+000	-1.17918316E+002	
-8.90940297E+000	-1.17940605E+002	
-8.88868966E+000	-1.17968977E+002	
-8.86797636E+000	-1.17960922E+002	
-8.84726305E+000	-1.17976928E+002	
-8.82654974E+000	-1.17966087E+002	
-8.80583644E+000	-1.17984219E+002	
-8.78512313E+000	-1.17987350E+002	
-8.76440983E+000	-1.18000306E+002	
-8.74369652E+000	-1.18058138E+002	
-8.72298322E+000	-1.18076030E+002	
-8.70226991E+000	-1.18004345E+002	
-8.68155661E+000	-1.17968654E+002	
-8.66084330E+000	-1.17996218E+002	
-8.64013000E+000	-1.17963681E+002	
-8.61941669E+000	-1.17920502E+002	
-8.59870339E+000	-1.17963320E+002	
-8.57799008E+000	-1.17962148E+002	
-8.55727678E+000	-1.17919081E+002	
-8.53656347E+000	-1.18036429E+002	
-8.51585017E+000	-1.18060293E+002	
-8.49513686E+000	-1.18065264E+002	
-8.47442355E+000	-1.18052157E+002	
-8.45371025E+000	-1.18088035E+002	
-8.43299694E+000	-1.18128501E+002	
-8.41228364E+000	-1.18092881E+002	
-8.39157033E+000	-1.18065150E+002	
-8.37085703E+000	-1.18115049E+002	
-8.35014372E+000	-1.18131667E+002	
-8.32943042E+000	-1.18145791E+002	
-8.30871711E+000	-1.18099882E+002	
-8.28800381E+000	-1.18136100E+002	
-8.26729050E+000	-1.18112132E+002	
-8.24657720E+000	-1.18103771E+002	
-8.22586389E+000	-1.18083527E+002	
-8.20515059E+000	-1.18133589E+002	
-8.18443728E+000	-1.18136438E+002	
-8.16372397E+000	-1.18122351E+002	
-8.14301067E+000	-1.18076545E+002	
-8.12229736E+000	-1.18094677E+002	
-8.10158406E+000	-1.18091951E+002	
-8.08087075E+000	-1.18085145E+002	
-8.06015745E+000	-1.18062853E+002	
-8.03944414E+000	-1.18006105E+002	
-8.01873084E+000	-1.18019300E+002	
-7.99801753E+000	-1.18000042E+002	
-7.97730423E+000	-1.17995794E+002	
-7.95659092E+000	-1.17959319E+002	
-7.93587762E+000	-1.17968582E+002	
-7.91516431E+000	-1.18003717E+002	
-7.89445101E+000	-1.18001956E+002	
-7.87373770E+000	-1.17978430E+002	
-7.85302439E+000	-1.17967442E+002	
-7.83231109E+000	-1.17948963E+002	
-7.81159778E+000	-1.17999870E+002	
-7.79088448E+000	-1.18020058E+002	
-7.77017117E+000	-1.18047147E+002	
-7.74945787E+000	-1.18060568E+002	
-7.72874456E+000	-1.18069166E+002	
-7.70803126E+000	-1.18027359E+002	
-7.68731795E+000	-1.18055015E+002	
-7.66660465E+000	-1.18046888E+002	
-7.64589134E+000	-1.18046009E+002	
-7.62517804E+000	-1.18029972E+002	
-7.60446473E+000	-1.17970769E+002	
-7.58375143E+000	-1.17984425E+002	
-7.56303812E+000	-1.18016647E+002	
-7.54232482E+000	-1.18085057E+002	
-7.52161151E+000	-1.18072610E+002	
-7.50089820E+000	-1.18090462E+002	
-7.48018490E+000	-1.18063808E+002	
-7.45947159E+000	-1.18104400E+002	
-7.43875829E+000	-1.18033528E+002	
-7.41804498E+000	-1.17949534E+002	
-7.39733168E+000	-1.17998405E+002	
-7.37661837E+000	-1.18011574E+002	
-7.35590507E+000	-1.18020419E+002	
-7.33519176E+000	-1.18041339E+002	
-7.31447846E+000	-1.18061071E+002	
-7.29376515E+000	-1.18036625E+002	
-7.27305185E+000	-1.18006824E+002	
-7.25233854E+000	-1.18039460E+002	
-7.23162524E+000	-1.18055567E+002	
-7.21091193E+000	-1.18049129E+002	
-7.19019862E+000	-1.18048499E+002	
-7.16948532E+000	-1.18099452E+002	
-7.14877201E+000	-1.18170089E+002	
-7.12805871E+000	-1.18223103E+002	
-7.10734540E+000	-1.18291155E+002	
-7.08663210E+000	-1.18322891E+002	
-7.06591879E+000	-1.18301481E+002	
-7.04520549E+000	-1.18286705E+002	
-7.02449218E+000	-1.18265855E+002	
-7.00377888E+000	-1.18228453E+002	
-6.98306557E+000	-1.18263320E+002	
-6.96235227E+000	-1.18222920E+002	
-6.94163896E+000	-1.18252312E+002	
-6.92092566E+000	-1.18321576E+002	
-6.90021235E+000	-1.18308951E+002	
-6.87949904E+000	-1.18279766E+002	
-6.85878574E+000	-1.18268500E+002	
-6.83807243E+000	-1.18295350E+002	
-6.81735913E+000	-1.18310503E+002	
-6.79664582E+000	-1.18269665E+002	
-6.77593252E+000	-1.18308984E+002	
-6.75521921E+000	-1.18267560E+002	
-6.73450591E+000	-1.18257312E+002	
-6.71379260E+000	-1.18235695E+002	
-6.69307930E+000	-1.18235707E+002	
-6.67236599E+000	-1.18190476E+002	
-6.65165269E+000	-1.18166792E+002	
-6.63093938E+000	-1.18191069E+002	
-6.61022608E+000	-1.18209085E+002	
-6.58951277E+000	-1.18201424E+002	
-6.56879947E+000	-1.18198786E+002	
-6.54808616E+000	-1.18191340E+002	
-6.52737285E+000	-1.18175878E+002	
-6.50665955E+000	-1.18205839E+002	
-6.48594624E+000	-1.18251031E+002	
-6.46523294E+000	-1.18292915E+002	
-6.44451963E+000	-1.18226722E+002	
-6.42380633E+000	-1.18182788E+002	
-6.40309302E+000	-1.18184288E+002	
-6.38237972E+000	-1.18151829E+002	
-6.36166641E+000	-1.18138607E+002	
-6.34095311E+000	-1.18135454E+002	
-6.32023980E+000	-1.18118641E+002	
-6.29952650E+000	-1.18119373E+002	
-6.27881319E+000	-1.18098863E+002	
-6.25809989E+000	-1.18109664E+002	
-6.23738658E+000	-1.18100272E+002	
-6.21667327E+000	-1.18086173E+002	
-6.19595997E+000	-1.18094777E+002	
-6.17524666E+000	-1.18095930E+002	
-6.15453336E+000	-1.18101617E+002	
-6.13382005E+000	-1.18082070E+002	
-6.11310675E+000	-1.18083373E+002	
-6.09239344E+000	-1.18081295E+002	
-6.07168014E+000	-1.18032080E+002	
-6.05096683E+000	-1.18098556E+002	
-6.03025353E+000	-1.18104868E+002	
-6.00954022E+000	-1.18086902E+002	
-5.98882692E+000	-1.18035159E+002	
-5.96811361E+000	-1.18041264E+002	
-5.94740031E+000	-1.18092709E+002	
-5.92668700E+000	-1.18140673E+002	
-5.90597369E+000	-1.18151584E+002	
-5.88526039E+000	-1.18204932E+002	
-5.86454708E+000	-1.18237796E+002	
-5.84383378E+000	-1.18206346E+002	
-5.82312047E+000	-1.18231894E+002	
-5.80240717E+000	-1.18215109E+002	
-5.78169386E+000	-1.18226824E+002	
-5.76098056E+000	-1.18221842E+002	
-5.74026725E+000	-1.18220777E+002	
-5.71955395E+000	-1.18264454E+002	
-5.69884064E+000	-1.18264616E+002	
-5.67812734E+000	-1.18288732E+002	
-5.65741403E+000	-1.18281043E+002	
-5.63670073E+000	-1.18290123E+002	
-5.61598742E+000	-1.18272542E+002	
-5.59527412E+000	-1.18241339E+002	
-5.57456081E+000	-1.18302846E+002	
-5.55384750E+000	-1.18211992E+002	
-5.53313420E+000	-1.18141611E+002	
-5.51242089E+000	-1.18165728E+002	
-5.49170759E+000	-1.18168808E+002	
-5.47099428E+000	-1.18142942E+002	
-5.45028098E+000	-1.18191233E+002	
-5.42956767E+000	-1.18224718E+002	
-5.40885437E+000	-1.18210777E+002	
-5.38814106E+000	-1.18190005E+002	
-5.36742776E+000	-1.18168977E+002	
-5.34671445E+000	-1.18199222E+002	
-5.32600115E+000	-1.18187828E+002	
-5.30528784E+000	-1.18202236E+002	
-5.28457454E+000	-1.18172798E+002	
-5.26386123E+000	-1.18162947E+002	
-5.24314792E+000	-1.18106840E+002	
-5.22243462E+000	-1.18072237E+002	
-5.20172131E+000	-1.18077134E+002	
-5.18100801E+000	-1.18028723E+002	
-5.16029470E+000	-1.18019649E+002	
-5.13958140E+000	-1.17979010E+002	
-5.11886809E+000	-1.17955813E+002	
-5.09815479E+000	-1.17959056E+002	
-5.07744148E+000	-1.17919505E+002	
-5.05672818E+000	-1.17982396E+002	
-5.03601487E+000	-1.18000780E+002	
-5.01530157E+000	-1.18026007E+002	
-4.99458826E+000	-1.18034099E+002	
-4.97387496E+000	-1.17983353E+002	
-4.95316165E+000	-1.17976978E+002	
-4.93244834E+000	-1.17940126E+002	
-4.91173504E+000	-1.17925476E+002	
-4.89102173E+000	-1.17927589E+002	
-4.87030843E+000	-1.17960704E+002	
-4.84959512E+000	-1.17951050E+002	
-4.82888182E+000	-1.17918913E+002	
-4.80816851E+000	-1.17910793E+002	
-4.78745521E+000	-1.17927823E+002	
-4.76674190E+000	-1.17963286E+002	
-4.74602860E+000	-1.17989884E+002	
-4.72531529E+000	-1.18036974E+002	
-4.70460199E+000	-1.18026123E+002	
-4.68388868E+000	-1.18072125E+002	
-4.66317538E+000	-1.18064788E+002	
-4.64246207E+000	-1.18092733E+002	
-4.62174877E+000	-1.18129283E+002	
-4.60103546E+000	-1.18172317E+002	
-4.58032215E+000	-1.18206940E+002	
-4.55960885E+000	-1.18180652E+002	
-4.53889554E+000	-1.18216894E+002	
-4.51818224E+000	-1.18145380E+002	
-4.49746893E+000	-1.18100459E+002	
-4.47675563E+000	-1.18151184E+002	
-4.45604232E+000	-1.18144048E+002	
-4.43532902E+000	-1.18138267E+002	
-4.41461571E+000	-1.18126769E+002	
-4.39390241E+000	-1.18147909E+002	
-4.37318910E+000	-1.18151947E+002	
-4.35247580E+000	-1.18127871E+002	
-4.33176249E+000	-1.18118622E+002	
-4.31104919E+000	-1.18114385E+002	
-4.29033588E+000	-1.18108450E+002	
-4.26962257E+000	-1.18099060E+002	
-4.24890927E+000	-1.18143341E+002	
-4.22819596E+000	-1.18158619E+002	
-4.20748266E+000	-1.18202161E+002	
-4.18676935E+000	-1.18152824E+002	
-4.16605605E+000	-1.18164967E+002	
-4.14534274E+000	-1.18184010E+002	
-4.12462944E+000	-1.18141611E+002	
-4.10391613E+000	-1.18123648E+002	
-4.08320283E+000	-1.18109007E+002	
-4.06248952E+000	-1.18104372E+002	
-4.04177622E+000	-1.18069082E+002	
-4.02106291E+000	-1.18104403E+002	
-4.00034961E+000	-1.18107233E+002	
-3.97963630E+000	-1.18072998E+002	
-3.95892299E+000	-1.18084076E+002	
-3.93820969E+000	-1.18066899E+002	
-3.91749638E+000	-1.18087665E+002	
-3.89678308E+000	-1.18052271E+002	
-3.87606977E+000	-1.17978348E+002	
-3.85535647E+000	-1.17979681E+002	
-3.83464316E+000	-1.17974299E+002	
-3.81392986E+000	-1.17968461E+002	
-3.79321655E+000	-1.18000535E+002	
-3.77250325E+000	-1.17936396E+002	
-3.75178994E+000	-1.17937116E+002	
-3.73107664E+000	-1.17944347E+002	
-3.71036333E+000	-1.17876134E+002	
-3.68965003E+000	-1.17906984E+002	
-3.66893672E+000	-1.17951637E+002	
-3.64822342E+000	-1.17921307E+002	
-3.62751011E+000	-1.17936145E+002	
-3.60679680E+000	-1.17935502E+002	
-3.58608350E+000	-1.17932794E+002	
-3.56537019E+000	-1.17952700E+002	
-3.54465689E+000	-1.17966854E+002	
-3.52394358E+000	-1.17997517E+002	
-3.50323028E+000	-1.18040492E+002	
-3.48251697E+000	-1.18075822E+002	
-3.46180367E+000	-1.18099031E+002	
-3.44109036E+000	-1.18112295E+002	
-3.42037706E+000	-1.18143110E+002	
-3.39966375E+000	-1.18175288E+002	
-3.37895045E+000	-1.18225146E+002	
-3.35823714E+000	-1.18216354E+002	
-3.33752384E+000	-1.18225040E+002	
-3.31681053E+000	-1.18241867E+002	
-3.29609722E+000	-1.18211235E+002	
-3.27538392E+000	-1.18226131E+002	
-3.25467061E+000	-1.18231081E+002	
-3.23395731E+000	-1.18217267E+002	
-3.21324400E+000	-1.18244385E+002	
-3.19253070E+000	-1.18238276E+002	
-3.17181739E+000	-1.18214915E+002	
-3.15110409E+000	-1.18191286E+002	
-3.13039078E+000	-1.18183532E+002	
-3.10967748E+000	-1.18223751E+002	
-3.08896417E+000	-1.18212708E+002	
-3.06825087E+000	-1.18203742E+002	
-3.04753756E+000	-1.18214540E+002	
-3.02682426E+000	-1.18178620E+002	
-3.00611095E+000	-1.18107763E+002	
-2.98539764E+000	-1.18141349E+002	
-2.96468434E+000	-1.18104477E+002	
-2.94397103E+000	-1.18076337E+002	
-2.92325773E+000	-1.18040481E+002	
-2.90254442E+000	-1.18041967E+002	
-2.88183112E+000	-1.18052518E+002	
-2.86111781E+000	-1.18103475E+002	
-2.84040451E+000	-1.18144918E+002	
-2.81969120E+000	-1.18177147E+002	
-2.79897790E+000	-1.18241571E+002	
-2.77826459E+000	-1.18196211E+002	
-2.75755129E+000	-1.18170148E+002	
-2.73683798E+000	-1.18179432E+002	
-2.71612468E+000	-1.18131876E+002	
-2.69541137E+000	-1.18112220E+002	
-2.67469807E+000	-1.18171131E+002	
-2.65398476E+000	-1.18191006E+002	
-2.63327145E+000	-1.18189809E+002	
-2.61255815E+000	-1.18137528E+002	
-2.59184484E+000	-1.18143421E+002	
-2.57113154E+000	-1.18141072E+002	
-2.55041823E+000	-1.18144341E+002	
-2.52970493E+000	-1.18199045E+002	
-2.50899162E+000	-1.18270840E+002	
-2.48827832E+000	-1.18255491E+002	
-2.46756501E+000	-1.18258868E+002	
-2.44685171E+000	-1.18267509E+002	
-2.42613840E+000	-1.18287576E+002	
-2.40542510E+000	-1.18300844E+002	
-2.38471179E+000	-1.18281568E+002	
-2.36399849E+000	-1.18254325E+002	
-2.34328518E+000	-1.18205014E+002	
-2.32257187E+000	-1.18151552E+002	
-2.30185857E+000	-1.18074502E+002	
-2.28114526E+000	-1.18103724E+002	
-2.26043196E+000	-1.18187232E+002	
-2.23971865E+000	-1.18180155E+002	
-2.21900535E+000	-1.18237226E+002	
-2.19829204E+000	-1.18264461E+002	
-2.17757874E+000	-1.18224287E+002	
-2.15686543E+000	-1.18212081E+002	
-2.13615213E+000	-1.18260599E+002	
-2.11543882E+000	-1.18261190E+002	
-2.09472552E+000	-1.18275241E+002	
-2.07401221E+000	-1.18243721E+002	
-2.05329891E+000	-1.18190536E+002	
-2.03258560E+000	-1.18196287E+002	
-2.01187229E+000	-1.18186873E+002	
-1.99115899E+000	-1.18187560E+002	
-1.97044568E+000	-1.18121520E+002	
-1.94973238E+000	-1.18138662E+002	
-1.92901907E+000	-1.18117965E+002	
-1.90830577E+000	-1.18071005E+002	
-1.88759246E+000	-1.18070667E+002	
-1.86687916E+000	-1.18110394E+002	
-1.84616585E+000	-1.18082591E+002	
-1.82545255E+000	-1.18160284E+002	
-1.80473924E+000	-1.18174471E+002	
-1.78402594E+000	-1.18212909E+002	
-1.76331263E+000	-1.18208412E+002	
-1.74259933E+000	-1.18157468E+002	
-1.72188602E+000	-1.18157600E+002	
-1.70117272E+000	-1.18230152E+002	
-1.68045941E+000	-1.18252942E+002	
-1.65974610E+000	-1.18206931E+002	
-1.63903280E+000	-1.18169386E+002	
-1.61831949E+000	-1.18232476E+002	
-1.59760619E+000	-1.18241661E+002	
-1.57689288E+000	-1.18252225E+002	
-1.55617958E+000	-1.18314773E+002	
-1.53546627E+000	-1.18300868E+002	
-1.51475297E+000	-1.18308181E+002	
-1.49403966E+000	-1.18287545E+002	
-1.47332636E+000	-1.18337963E+002	
-1.45261305E+000	-1.18300433E+002	
-1.43189975E+000	-1.18303542E+002	
-1.41118644E+000	-1.18296872E+002	
-1.39047314E+000	-1.18318763E+002	
-1.36975983E+000	-1.18276766E+002	
-1.34904652E+000	-1.18275468E+002	
-1.32833322E+000	-1.18231029E+002	
-1.30761991E+000	-1.18181869E+002	
-1.28690661E+000	-1.18186802E+002	
-1.26619330E+000	-1.18173549E+002	
-1.24548000E+000	-1.18220245E+002	
-1.22476669E+000	-1.18239410E+002	
-1.20405339E+000	-1.18132667E+002	
-1.18334008E+000	-1.18120576E+002	
-1.16262678E+000	-1.18189938E+002	
-1.14191347E+000	-1.18220566E+002	
-1.12120017E+000	-1.18211473E+002	
-1.10048686E+000	-1.18186638E+002	
-1.07977356E+000	-1.18193704E+002	
-1.05906025E+000	-1.18224445E+002	
-1.03834694E+000	-1.18207667E+002	
-1.01763364E+000	-1.18144052E+002	
-9.96920334E-001	-1.18055089E+002	
-9.76207029E-001	-1.18012741E+002	
-9.55493724E-001	-1.18027159E+002	
-9.34780418E-001	-1.18040146E+002	
-9.14067113E-001	-1.18083246E+002	
-8.93353808E-001	-1.18067283E+002	
-8.72640502E-001	-1.18046798E+002	
-8.51927197E-001	-1.18077100E+002	
-8.31213892E-001	-1.18102661E+002	
-8.10500586E-001	-1.18163652E+002	
-7.89787281E-001	-1.18181429E+002	
-7.69073976E-001	-1.18191522E+002	
-7.48360671E-001	-1.18179537E+002	
-7.27647365E-001	-1.18175607E+002	
-7.06934060E-001	-1.18207420E+002	
-6.86220755E-001	-1.18233924E+002	
-6.65507449E-001	-1.18260081E+002	
-6.44794144E-001	-1.18251377E+002	
-6.24080839E-001	-1.18212411E+002	
-6.03367533E-001	-1.18206291E+002	
-5.82654228E-001	-1.18176163E+002	
-5.61940923E-001	-1.18126973E+002	
-5.41227617E-001	-1.18084391E+002	
-5.20514312E-001	-1.18113273E+002	
-4.99801007E-001	-1.18212609E+002	
-4.79087701E-001	-1.18292566E+002	
-4.58374396E-001	-1.18328682E+002	
-4.37661091E-001	-1.18296565E+002	
-4.16947785E-001	-1.18270641E+002	
-3.96234480E-001	-1.18275741E+002	
-3.75521175E-001	-1.18285757E+002	
-3.54807869E-001	-1.18298633E+002	
-3.34094564E-001	-1.18304105E+002	
-3.13381259E-001	-1.18311821E+002	
-2.92667954E-001	-1.18289561E+002	
-2.71954648E-001	-1.18220758E+002	
-2.51241343E-001	-8.59181301E+001	
-2.30528038E-001	-8.56082962E+001	
-2.09814732E-001	-8.56082715E+001	
-1.89101427E-001	-8.56082678E+001	
-1.68388122E-001	-8.56082590E+001	
-1.47674816E-001	-8.56082374E+001	
-1.26961511E-001	-8.56081876E+001	
-1.06248206E-001	-8.56081565E+001	
-8.55349003E-002	-8.56081667E+001	
-6.48215950E-002	-8.56082003E+001	
-4.41082897E-002	-8.56082592E+001	
-2.33949844E-002	-8.56082887E+001	
-2.68167905E-003	-8.56083132E+001	
1.80316263E-002	-8.56083010E+001	
3.87449316E-002	-8.56083085E+001	
5.94582369E-002	-8.56083497E+001	
8.01715422E-002	-8.56083776E+001	
1.00884848E-001	-8.56083962E+001	
1.21598153E-001	-8.56084340E+001	
1.42311458E-001	-8.56084417E+001	
1.63024763E-001	-8.56084462E+001	
1.83738069E-001	-8.56084380E+001	
2.04451374E-001	-8.56084285E+001	
2.25164679E-001	-8.56084427E+001	
2.45877985E-001	-9.22350628E+001	
2.66591290E-001	-1.18560520E+002	
2.87304595E-001	-1.18626941E+002	
3.08017901E-001	-1.18661198E+002	
3.28731206E-001	-1.18627407E+002	
3.49444511E-001	-1.18651344E+002	
3.70157817E-001	-1.18770283E+002	
3.90871122E-001	-1.18845799E+002	
4.11584427E-001	-1.18896617E+002	
4.32297733E-001	-1.18916077E+002	
4.53011038E-001	-1.18923852E+002	
4.73724343E-001	-1.18902365E+002	
4.94437649E-001	-1.18857742E+002	
5.15150954E-001	-1.18884600E+002	
5.35864259E-001	-1.18849671E+002	
5.56577565E-001	-1.18797737E+002	
5.77290870E-001	-1.18828491E+002	
5.98004175E-001	-1.18862991E+002	
6.18717481E-001	-1.18828306E+002	
6.39430786E-001	-1.18806372E+002	
6.60144091E-001	-1.18844310E+002	
6.80857396E-001	-1.18884956E+002	
7.01570702E-001	-1.18927657E+002	
7.22284007E-001	-1.18949972E+002	
7.42997312E-001	-1.18953368E+002	
7.63710618E-001	-1.18931286E+002	
7.84423923E-001	-1.18927286E+002	
8.05137228E-001	-1.18932695E+002	
8.25850534E-001	-1.18966339E+002	
8.46563839E-001	-1.18963597E+002	
8.67277144E-001	-1.19000712E+002	
8.87990450E-001	-1.19030615E+002	
9.08703755E-001	-1.19014518E+002	
9.29417060E-001	-1.18990778E+002	
9.50130366E-001	-1.18996990E+002	
9.70843671E-001	-1.18998357E+002	
9.91556976E-001	-1.19064982E+002	
1.01227028E+000	-1.19058672E+002	
1.03298359E+000	-1.19101175E+002	
1.05369689E+000	-1.19181594E+002	
1.07441020E+000	-1.19176993E+002	
1.09512350E+000	-1.19126044E+002	
1.11583681E+000	-1.19100547E+002	
1.13655011E+000	-1.19146351E+002	
1.15726342E+000	-1.19144755E+002	
1.17797672E+000	-1.19159172E+002	
1.19869003E+000	-1.19164633E+002	
1.21940333E+000	-1.19180569E+002	
1.24011664E+000	-1.19187434E+002	
1.26082995E+000	-1.19152972E+002	
1.28154325E+000	-1.19184917E+002	
1.30225656E+000	-1.19215230E+002	
1.32296986E+000	-1.19196305E+002	
1.34368317E+000	-1.19264211E+002	
1.36439647E+000	-1.19298980E+002	
1.38510978E+000	-1.19332241E+002	
1.40582308E+000	-1.19368336E+002	
1.42653639E+000	-1.19366193E+002	
1.44724969E+000	-1.19334452E+002	
1.46796300E+000	-1.19341531E+002	
1.48867630E+000	-1.19337628E+002	
1.50938961E+000	-1.19333250E+002	
1.53010291E+000	-1.19295805E+002	
1.55081622E+000	-1.19229905E+002	
1.57152953E+000	-1.19170894E+002	
