Acquired on 8/13/2021 at 13:02:43
Calibrated on 8/13/2021 at 11:06:07
Device Descriptor:  [none]
Scan Range (nm):  1539.624  --  1560.517
Measurement Type:  Reflection
Group Index:  1.500
Gain:  24 dB
Domain:  Time
Spatial Resolution (mm):  50.000000
Frequency domain window was applied to measurement data.
Number of Data Points (in this file):  16384
NOTE: Data stored in this file is decimated by a factor of 64.

Time (ns)	Amplitude (dB)	
-1.00072081E+001	-1.20750335E+002	
-9.98649484E+000	-1.20417326E+002	
-9.96578154E+000	-1.20058823E+002	
-9.94506823E+000	-1.19791556E+002	
-9.92435493E+000	-1.19560765E+002	
-9.90364162E+000	-1.19319237E+002	
-9.88292832E+000	-1.19100740E+002	
-9.86221501E+000	-1.18889897E+002	
-9.84150171E+000	-1.18688823E+002	
-9.82078840E+000	-1.18508666E+002	
-9.80007509E+000	-1.18307808E+002	
-9.77936179E+000	-1.18106807E+002	
-9.75864848E+000	-1.18048368E+002	
-9.73793518E+000	-1.18061309E+002	
-9.71722187E+000	-1.18059945E+002	
-9.69650857E+000	-1.18055293E+002	
-9.67579526E+000	-1.18112365E+002	
-9.65508196E+000	-1.18098823E+002	
-9.63436865E+000	-1.18043511E+002	
-9.61365535E+000	-1.18046023E+002	
-9.59294204E+000	-1.18075947E+002	
-9.57222874E+000	-1.18094445E+002	
-9.55151543E+000	-1.18108059E+002	
-9.53080213E+000	-1.18099036E+002	
-9.51008882E+000	-1.18133698E+002	
-9.48937552E+000	-1.18161809E+002	
-9.46866221E+000	-1.18163263E+002	
-9.44794890E+000	-1.18133378E+002	
-9.42723560E+000	-1.18088369E+002	
-9.40652229E+000	-1.18085628E+002	
-9.38580899E+000	-1.18064210E+002	
-9.36509568E+000	-1.18055139E+002	
-9.34438238E+000	-1.18021003E+002	
-9.32366907E+000	-1.17991833E+002	
-9.30295577E+000	-1.17989622E+002	
-9.28224246E+000	-1.18006229E+002	
-9.26152916E+000	-1.17956912E+002	
-9.24081585E+000	-1.17899877E+002	
-9.22010255E+000	-1.17888132E+002	
-9.19938924E+000	-1.17926793E+002	
-9.17867594E+000	-1.17911749E+002	
-9.15796263E+000	-1.17910919E+002	
-9.13724932E+000	-1.17975604E+002	
-9.11653602E+000	-1.17979191E+002	
-9.09582271E+000	-1.17926954E+002	
-9.07510941E+000	-1.17933963E+002	
-9.05439610E+000	-1.17937482E+002	
-9.03368280E+000	-1.17817728E+002	
-9.01296949E+000	-1.17805948E+002	
-8.99225619E+000	-1.17807699E+002	
-8.97154288E+000	-1.17854723E+002	
-8.95082958E+000	-1.17873716E+002	
-8.93011627E+000	-1.17899396E+002	
-8.90940297E+000	-1.17921753E+002	
-8.88868966E+000	-1.17944040E+002	
-8.86797636E+000	-1.17937627E+002	
-8.84726305E+000	-1.17948778E+002	
-8.82654974E+000	-1.17935054E+002	
-8.80583644E+000	-1.17951955E+002	
-8.78512313E+000	-1.17958025E+002	
-8.76440983E+000	-1.17975933E+002	
-8.74369652E+000	-1.18035242E+002	
-8.72298322E+000	-1.18051316E+002	
-8.70226991E+000	-1.17982451E+002	
-8.68155661E+000	-1.17949218E+002	
-8.66084330E+000	-1.17982050E+002	
-8.64013000E+000	-1.17953879E+002	
-8.61941669E+000	-1.17909721E+002	
-8.59870339E+000	-1.17955269E+002	
-8.57799008E+000	-1.17956975E+002	
-8.55727678E+000	-1.17914544E+002	
-8.53656347E+000	-1.18029354E+002	
-8.51585017E+000	-1.18051902E+002	
-8.49513686E+000	-1.18056684E+002	
-8.47442355E+000	-1.18043320E+002	
-8.45371025E+000	-1.18075515E+002	
-8.43299694E+000	-1.18115084E+002	
-8.41228364E+000	-1.18075015E+002	
-8.39157033E+000	-1.18050424E+002	
-8.37085703E+000	-1.18097484E+002	
-8.35014372E+000	-1.18114520E+002	
-8.32943042E+000	-1.18133740E+002	
-8.30871711E+000	-1.18095174E+002	
-8.28800381E+000	-1.18125923E+002	
-8.26729050E+000	-1.18110813E+002	
-8.24657720E+000	-1.18102960E+002	
-8.22586389E+000	-1.18082585E+002	
-8.20515059E+000	-1.18125911E+002	
-8.18443728E+000	-1.18120891E+002	
-8.16372397E+000	-1.18106346E+002	
-8.14301067E+000	-1.18063055E+002	
-8.12229736E+000	-1.18082237E+002	
-8.10158406E+000	-1.18078135E+002	
-8.08087075E+000	-1.18074291E+002	
-8.06015745E+000	-1.18055446E+002	
-8.03944414E+000	-1.18000239E+002	
-8.01873084E+000	-1.18013569E+002	
-7.99801753E+000	-1.17998495E+002	
-7.97730423E+000	-1.17988776E+002	
-7.95659092E+000	-1.17955418E+002	
-7.93587762E+000	-1.17969109E+002	
-7.91516431E+000	-1.18011517E+002	
-7.89445101E+000	-1.18010797E+002	
-7.87373770E+000	-1.17991642E+002	
-7.85302439E+000	-1.17988135E+002	
-7.83231109E+000	-1.17973343E+002	
-7.81159778E+000	-1.18022054E+002	
-7.79088448E+000	-1.18052730E+002	
-7.77017117E+000	-1.18076311E+002	
-7.74945787E+000	-1.18091230E+002	
-7.72874456E+000	-1.18102578E+002	
-7.70803126E+000	-1.18062481E+002	
-7.68731795E+000	-1.18098033E+002	
-7.66660465E+000	-1.18087503E+002	
-7.64589134E+000	-1.18083774E+002	
-7.62517804E+000	-1.18064303E+002	
-7.60446473E+000	-1.18002969E+002	
-7.58375143E+000	-1.18015521E+002	
-7.56303812E+000	-1.18047359E+002	
-7.54232482E+000	-1.18114511E+002	
-7.52161151E+000	-1.18101679E+002	
-7.50089820E+000	-1.18114604E+002	
-7.48018490E+000	-1.18089497E+002	
-7.45947159E+000	-1.18135394E+002	
-7.43875829E+000	-1.18070659E+002	
-7.41804498E+000	-1.17983077E+002	
-7.39733168E+000	-1.18035790E+002	
-7.37661837E+000	-1.18046511E+002	
-7.35590507E+000	-1.18051335E+002	
-7.33519176E+000	-1.18067112E+002	
-7.31447846E+000	-1.18082582E+002	
-7.29376515E+000	-1.18048703E+002	
-7.27305185E+000	-1.18017131E+002	
-7.25233854E+000	-1.18048376E+002	
-7.23162524E+000	-1.18065006E+002	
-7.21091193E+000	-1.18063016E+002	
-7.19019862E+000	-1.18064052E+002	
-7.16948532E+000	-1.18116269E+002	
-7.14877201E+000	-1.18191269E+002	
-7.12805871E+000	-1.18249762E+002	
-7.10734540E+000	-1.18323369E+002	
-7.08663210E+000	-1.18358589E+002	
-7.06591879E+000	-1.18336288E+002	
-7.04520549E+000	-1.18320591E+002	
-7.02449218E+000	-1.18293787E+002	
-7.00377888E+000	-1.18257636E+002	
-6.98306557E+000	-1.18301301E+002	
-6.96235227E+000	-1.18259247E+002	
-6.94163896E+000	-1.18281388E+002	
-6.92092566E+000	-1.18350974E+002	
-6.90021235E+000	-1.18332408E+002	
-6.87949904E+000	-1.18294719E+002	
-6.85878574E+000	-1.18282511E+002	
-6.83807243E+000	-1.18311323E+002	
-6.81735913E+000	-1.18328312E+002	
-6.79664582E+000	-1.18287915E+002	
-6.77593252E+000	-1.18326595E+002	
-6.75521921E+000	-1.18276227E+002	
-6.73450591E+000	-1.18265183E+002	
-6.71379260E+000	-1.18231831E+002	
-6.69307930E+000	-1.18231102E+002	
-6.67236599E+000	-1.18188711E+002	
-6.65165269E+000	-1.18166809E+002	
-6.63093938E+000	-1.18186503E+002	
-6.61022608E+000	-1.18210329E+002	
-6.58951277E+000	-1.18203625E+002	
-6.56879947E+000	-1.18192662E+002	
-6.54808616E+000	-1.18178108E+002	
-6.52737285E+000	-1.18160250E+002	
-6.50665955E+000	-1.18190918E+002	
-6.48594624E+000	-1.18232739E+002	
-6.46523294E+000	-1.18273389E+002	
-6.44451963E+000	-1.18213293E+002	
-6.42380633E+000	-1.18171734E+002	
-6.40309302E+000	-1.18172795E+002	
-6.38237972E+000	-1.18145925E+002	
-6.36166641E+000	-1.18145518E+002	
-6.34095311E+000	-1.18145358E+002	
-6.32023980E+000	-1.18133269E+002	
-6.29952650E+000	-1.18141748E+002	
-6.27881319E+000	-1.18117601E+002	
-6.25809989E+000	-1.18130759E+002	
-6.23738658E+000	-1.18123094E+002	
-6.21667327E+000	-1.18117291E+002	
-6.19595997E+000	-1.18129328E+002	
-6.17524666E+000	-1.18120561E+002	
-6.15453336E+000	-1.18121431E+002	
-6.13382005E+000	-1.18100471E+002	
-6.11310675E+000	-1.18102093E+002	
-6.09239344E+000	-1.18098134E+002	
-6.07168014E+000	-1.18049996E+002	
-6.05096683E+000	-1.18119824E+002	
-6.03025353E+000	-1.18134023E+002	
-6.00954022E+000	-1.18123278E+002	
-5.98882692E+000	-1.18074482E+002	
-5.96811361E+000	-1.18083838E+002	
-5.94740031E+000	-1.18123857E+002	
-5.92668700E+000	-1.18160276E+002	
-5.90597369E+000	-1.18177413E+002	
-5.88526039E+000	-1.18228554E+002	
-5.86454708E+000	-1.18246935E+002	
-5.84383378E+000	-1.18215751E+002	
-5.82312047E+000	-1.18241976E+002	
-5.80240717E+000	-1.18219093E+002	
-5.78169386E+000	-1.18232305E+002	
-5.76098056E+000	-1.18228365E+002	
-5.74026725E+000	-1.18226060E+002	
-5.71955395E+000	-1.18267507E+002	
-5.69884064E+000	-1.18265598E+002	
-5.67812734E+000	-1.18292922E+002	
-5.65741403E+000	-1.18282340E+002	
-5.63670073E+000	-1.18293075E+002	
-5.61598742E+000	-1.18270121E+002	
-5.59527412E+000	-1.18233546E+002	
-5.57456081E+000	-1.18295736E+002	
-5.55384750E+000	-1.18213367E+002	
-5.53313420E+000	-1.18144332E+002	
-5.51242089E+000	-1.18151905E+002	
-5.49170759E+000	-1.18147692E+002	
-5.47099428E+000	-1.18119725E+002	
-5.45028098E+000	-1.18177770E+002	
-5.42956767E+000	-1.18222955E+002	
-5.40885437E+000	-1.18205334E+002	
-5.38814106E+000	-1.18191812E+002	
-5.36742776E+000	-1.18177798E+002	
-5.34671445E+000	-1.18211041E+002	
-5.32600115E+000	-1.18200069E+002	
-5.30528784E+000	-1.18209846E+002	
-5.28457454E+000	-1.18178529E+002	
-5.26386123E+000	-1.18172652E+002	
-5.24314792E+000	-1.18118584E+002	
-5.22243462E+000	-1.18085563E+002	
-5.20172131E+000	-1.18091243E+002	
-5.18100801E+000	-1.18044103E+002	
-5.16029470E+000	-1.18038988E+002	
-5.13958140E+000	-1.17993550E+002	
-5.11886809E+000	-1.17965412E+002	
-5.09815479E+000	-1.17970561E+002	
-5.07744148E+000	-1.17930920E+002	
-5.05672818E+000	-1.17989078E+002	
-5.03601487E+000	-1.18000083E+002	
-5.01530157E+000	-1.18034168E+002	
-4.99458826E+000	-1.18042546E+002	
-4.97387496E+000	-1.17993364E+002	
-4.95316165E+000	-1.17985271E+002	
-4.93244834E+000	-1.17941827E+002	
-4.91173504E+000	-1.17928713E+002	
-4.89102173E+000	-1.17921050E+002	
-4.87030843E+000	-1.17952787E+002	
-4.84959512E+000	-1.17930761E+002	
-4.82888182E+000	-1.17892710E+002	
-4.80816851E+000	-1.17890009E+002	
-4.78745521E+000	-1.17908352E+002	
-4.76674190E+000	-1.17938735E+002	
-4.74602860E+000	-1.17957446E+002	
-4.72531529E+000	-1.18008568E+002	
-4.70460199E+000	-1.17991548E+002	
-4.68388868E+000	-1.18036976E+002	
-4.66317538E+000	-1.18029463E+002	
-4.64246207E+000	-1.18063859E+002	
-4.62174877E+000	-1.18112438E+002	
-4.60103546E+000	-1.18155620E+002	
-4.58032215E+000	-1.18185717E+002	
-4.55960885E+000	-1.18163191E+002	
-4.53889554E+000	-1.18198277E+002	
-4.51818224E+000	-1.18125820E+002	
-4.49746893E+000	-1.18081589E+002	
-4.47675563E+000	-1.18127270E+002	
-4.45604232E+000	-1.18115385E+002	
-4.43532902E+000	-1.18114070E+002	
-4.41461571E+000	-1.18103236E+002	
-4.39390241E+000	-1.18134788E+002	
-4.37318910E+000	-1.18140703E+002	
-4.35247580E+000	-1.18116430E+002	
-4.33176249E+000	-1.18103949E+002	
-4.31104919E+000	-1.18096412E+002	
-4.29033588E+000	-1.18090780E+002	
-4.26962257E+000	-1.18079603E+002	
-4.24890927E+000	-1.18123795E+002	
-4.22819596E+000	-1.18133483E+002	
-4.20748266E+000	-1.18179596E+002	
-4.18676935E+000	-1.18130241E+002	
-4.16605605E+000	-1.18147478E+002	
-4.14534274E+000	-1.18167405E+002	
-4.12462944E+000	-1.18124660E+002	
-4.10391613E+000	-1.18112614E+002	
-4.08320283E+000	-1.18101810E+002	
-4.06248952E+000	-1.18100291E+002	
-4.04177622E+000	-1.18066714E+002	
-4.02106291E+000	-1.18107865E+002	
-4.00034961E+000	-1.18113739E+002	
-3.97963630E+000	-1.18076945E+002	
-3.95892299E+000	-1.18091006E+002	
-3.93820969E+000	-1.18069670E+002	
-3.91749638E+000	-1.18091365E+002	
-3.89678308E+000	-1.18052068E+002	
-3.87606977E+000	-1.17970709E+002	
-3.85535647E+000	-1.17975920E+002	
-3.83464316E+000	-1.17979315E+002	
-3.81392986E+000	-1.17976211E+002	
-3.79321655E+000	-1.18004334E+002	
-3.77250325E+000	-1.17943182E+002	
-3.75178994E+000	-1.17946840E+002	
-3.73107664E+000	-1.17954825E+002	
-3.71036333E+000	-1.17892883E+002	
-3.68965003E+000	-1.17926880E+002	
-3.66893672E+000	-1.17971227E+002	
-3.64822342E+000	-1.17933844E+002	
-3.62751011E+000	-1.17945586E+002	
-3.60679680E+000	-1.17944643E+002	
-3.58608350E+000	-1.17942468E+002	
-3.56537019E+000	-1.17963732E+002	
-3.54465689E+000	-1.17980339E+002	
-3.52394358E+000	-1.18007732E+002	
-3.50323028E+000	-1.18048809E+002	
-3.48251697E+000	-1.18084015E+002	
-3.46180367E+000	-1.18109618E+002	
-3.44109036E+000	-1.18126937E+002	
-3.42037706E+000	-1.18156690E+002	
-3.39966375E+000	-1.18188260E+002	
-3.37895045E+000	-1.18241238E+002	
-3.35823714E+000	-1.18235352E+002	
-3.33752384E+000	-1.18242575E+002	
-3.31681053E+000	-1.18256904E+002	
-3.29609722E+000	-1.18232088E+002	
-3.27538392E+000	-1.18250495E+002	
-3.25467061E+000	-1.18255287E+002	
-3.23395731E+000	-1.18245441E+002	
-3.21324400E+000	-1.18259505E+002	
-3.19253070E+000	-1.18252706E+002	
-3.17181739E+000	-1.18228593E+002	
-3.15110409E+000	-1.18209383E+002	
-3.13039078E+000	-1.18203806E+002	
-3.10967748E+000	-1.18245082E+002	
-3.08896417E+000	-1.18237393E+002	
-3.06825087E+000	-1.18219275E+002	
-3.04753756E+000	-1.18227401E+002	
-3.02682426E+000	-1.18194725E+002	
-3.00611095E+000	-1.18125640E+002	
-2.98539764E+000	-1.18162762E+002	
-2.96468434E+000	-1.18129605E+002	
-2.94397103E+000	-1.18096877E+002	
-2.92325773E+000	-1.18057383E+002	
-2.90254442E+000	-1.18055118E+002	
-2.88183112E+000	-1.18064806E+002	
-2.86111781E+000	-1.18106768E+002	
-2.84040451E+000	-1.18145749E+002	
-2.81969120E+000	-1.18176326E+002	
-2.79897790E+000	-1.18240656E+002	
-2.77826459E+000	-1.18197602E+002	
-2.75755129E+000	-1.18173491E+002	
-2.73683798E+000	-1.18182605E+002	
-2.71612468E+000	-1.18139280E+002	
-2.69541137E+000	-1.18122101E+002	
-2.67469807E+000	-1.18176462E+002	
-2.65398476E+000	-1.18190845E+002	
-2.63327145E+000	-1.18183191E+002	
-2.61255815E+000	-1.18125340E+002	
-2.59184484E+000	-1.18124758E+002	
-2.57113154E+000	-1.18123427E+002	
-2.55041823E+000	-1.18124988E+002	
-2.52970493E+000	-1.18176620E+002	
-2.50899162E+000	-1.18241048E+002	
-2.48827832E+000	-1.18224446E+002	
-2.46756501E+000	-1.18218748E+002	
-2.44685171E+000	-1.18222726E+002	
-2.42613840E+000	-1.18244364E+002	
-2.40542510E+000	-1.18255605E+002	
-2.38471179E+000	-1.18236001E+002	
-2.36399849E+000	-1.18219784E+002	
-2.34328518E+000	-1.18172454E+002	
-2.32257187E+000	-1.18124827E+002	
-2.30185857E+000	-1.18044864E+002	
-2.28114526E+000	-1.18067900E+002	
-2.26043196E+000	-1.18147478E+002	
-2.23971865E+000	-1.18134941E+002	
-2.21900535E+000	-1.18186921E+002	
-2.19829204E+000	-1.18213574E+002	
-2.17757874E+000	-1.18176927E+002	
-2.15686543E+000	-1.18163153E+002	
-2.13615213E+000	-1.18212504E+002	
-2.11543882E+000	-1.18218845E+002	
-2.09472552E+000	-1.18235849E+002	
-2.07401221E+000	-1.18202473E+002	
-2.05329891E+000	-1.18150136E+002	
-2.03258560E+000	-1.18158917E+002	
-2.01187229E+000	-1.18149328E+002	
-1.99115899E+000	-1.18153403E+002	
-1.97044568E+000	-1.18091824E+002	
-1.94973238E+000	-1.18114349E+002	
-1.92901907E+000	-1.18097057E+002	
-1.90830577E+000	-1.18050921E+002	
-1.88759246E+000	-1.18051258E+002	
-1.86687916E+000	-1.18088858E+002	
-1.84616585E+000	-1.18058705E+002	
-1.82545255E+000	-1.18133475E+002	
-1.80473924E+000	-1.18146035E+002	
-1.78402594E+000	-1.18179448E+002	
-1.76331263E+000	-1.18176654E+002	
-1.74259933E+000	-1.18132664E+002	
-1.72188602E+000	-1.18139626E+002	
-1.70117272E+000	-1.18210853E+002	
-1.68045941E+000	-1.18229640E+002	
-1.65974610E+000	-1.18191558E+002	
-1.63903280E+000	-1.18157528E+002	
-1.61831949E+000	-1.18214340E+002	
-1.59760619E+000	-1.18221757E+002	
-1.57689288E+000	-1.18236854E+002	
-1.55617958E+000	-1.18300457E+002	
-1.53546627E+000	-1.18281944E+002	
-1.51475297E+000	-1.18294329E+002	
-1.49403966E+000	-1.18269122E+002	
-1.47332636E+000	-1.18315997E+002	
-1.45261305E+000	-1.18274662E+002	
-1.43189975E+000	-1.18272089E+002	
-1.41118644E+000	-1.18268297E+002	
-1.39047314E+000	-1.18295597E+002	
-1.36975983E+000	-1.18245776E+002	
-1.34904652E+000	-1.18240805E+002	
-1.32833322E+000	-1.18194504E+002	
-1.30761991E+000	-1.18145349E+002	
-1.28690661E+000	-1.18156644E+002	
-1.26619330E+000	-1.18144993E+002	
-1.24548000E+000	-1.18192956E+002	
-1.22476669E+000	-1.18212778E+002	
-1.20405339E+000	-1.18114492E+002	
-1.18334008E+000	-1.18106921E+002	
-1.16262678E+000	-1.18175455E+002	
-1.14191347E+000	-1.18207104E+002	
-1.12120017E+000	-1.18200976E+002	
-1.10048686E+000	-1.18172818E+002	
-1.07977356E+000	-1.18176585E+002	
-1.05906025E+000	-1.18213037E+002	
-1.03834694E+000	-1.18199963E+002	
-1.01763364E+000	-1.18132426E+002	
-9.96920334E-001	-1.18047061E+002	
-9.76207029E-001	-1.18005590E+002	
-9.55493724E-001	-1.18026530E+002	
-9.34780418E-001	-1.18043899E+002	
-9.14067113E-001	-1.18088187E+002	
-8.93353808E-001	-1.18070505E+002	
-8.72640502E-001	-1.18050332E+002	
-8.51927197E-001	-1.18086926E+002	
-8.31213892E-001	-1.18121111E+002	
-8.10500586E-001	-1.18183227E+002	
-7.89787281E-001	-1.18204902E+002	
-7.69073976E-001	-1.18214612E+002	
-7.48360671E-001	-1.18200299E+002	
-7.27647365E-001	-1.18189878E+002	
-7.06934060E-001	-1.18212301E+002	
-6.86220755E-001	-1.18231456E+002	
-6.65507449E-001	-1.18256574E+002	
-6.44794144E-001	-1.18247110E+002	
-6.24080839E-001	-1.18211235E+002	
-6.03367533E-001	-1.18205752E+002	
-5.82654228E-001	-1.18185300E+002	
-5.61940923E-001	-1.18135719E+002	
-5.41227617E-001	-1.18096352E+002	
-5.20514312E-001	-1.18130401E+002	
-4.99801007E-001	-1.18236792E+002	
-4.79087701E-001	-1.18315784E+002	
-4.58374396E-001	-1.18348828E+002	
-4.37661091E-001	-1.18312207E+002	
-4.16947785E-001	-1.18292002E+002	
-3.96234480E-001	-1.18295871E+002	
-3.75521175E-001	-1.18307164E+002	
-3.54807869E-001	-1.18312919E+002	
-3.34094564E-001	-1.18312547E+002	
-3.13381259E-001	-1.18334912E+002	
-2.92667954E-001	-1.18240377E+002	
-2.71954648E-001	-1.18151908E+002	
-2.51241343E-001	-8.59192924E+001	
-2.30528038E-001	-8.56076802E+001	
-2.09814732E-001	-8.56076362E+001	
-1.89101427E-001	-8.56076344E+001	
-1.68388122E-001	-8.56076245E+001	
-1.47674816E-001	-8.56076025E+001	
-1.26961511E-001	-8.56075491E+001	
-1.06248206E-001	-8.56075164E+001	
-8.55349003E-002	-8.56075212E+001	
-6.48215950E-002	-8.56075530E+001	
-4.41082897E-002	-8.56076070E+001	
-2.33949844E-002	-8.56076391E+001	
-2.68167905E-003	-8.56076620E+001	
1.80316263E-002	-8.56076543E+001	
3.87449316E-002	-8.56076653E+001	
5.94582369E-002	-8.56077071E+001	
8.01715422E-002	-8.56077319E+001	
1.00884848E-001	-8.56077508E+001	
1.21598153E-001	-8.56077915E+001	
1.42311458E-001	-8.56078034E+001	
1.63024763E-001	-8.56078079E+001	
1.83738069E-001	-8.56077887E+001	
2.04451374E-001	-8.56078117E+001	
2.25164679E-001	-8.56078426E+001	
2.45877985E-001	-9.22267697E+001	
2.66591290E-001	-1.18518535E+002	
2.87304595E-001	-1.18631223E+002	
3.08017901E-001	-1.18682632E+002	
3.28731206E-001	-1.18646328E+002	
3.49444511E-001	-1.18666871E+002	
3.70157817E-001	-1.18781259E+002	
3.90871122E-001	-1.18861676E+002	
4.11584427E-001	-1.18922491E+002	
4.32297733E-001	-1.18945428E+002	
4.53011038E-001	-1.18960833E+002	
4.73724343E-001	-1.18934833E+002	
4.94437649E-001	-1.18887428E+002	
5.15150954E-001	-1.18909937E+002	
5.35864259E-001	-1.18872042E+002	
5.56577565E-001	-1.18820829E+002	
5.77290870E-001	-1.18850883E+002	
5.98004175E-001	-1.18882309E+002	
6.18717481E-001	-1.18846336E+002	
6.39430786E-001	-1.18826388E+002	
6.60144091E-001	-1.18873582E+002	
6.80857396E-001	-1.18915951E+002	
7.01570702E-001	-1.18952245E+002	
7.22284007E-001	-1.18974959E+002	
7.42997312E-001	-1.18981142E+002	
7.63710618E-001	-1.18956547E+002	
7.84423923E-001	-1.18936596E+002	
8.05137228E-001	-1.18928446E+002	
8.25850534E-001	-1.18960576E+002	
8.46563839E-001	-1.18960954E+002	
8.67277144E-001	-1.19001306E+002	
8.87990450E-001	-1.19029222E+002	
9.08703755E-001	-1.19002582E+002	
9.29417060E-001	-1.18977152E+002	
9.50130366E-001	-1.18983206E+002	
9.70843671E-001	-1.18985141E+002	
9.91556976E-001	-1.19049613E+002	
1.01227028E+000	-1.19044592E+002	
1.03298359E+000	-1.19084090E+002	
1.05369689E+000	-1.19160600E+002	
1.07441020E+000	-1.19155132E+002	
1.09512350E+000	-1.19107810E+002	
1.11583681E+000	-1.19078406E+002	
1.13655011E+000	-1.19113072E+002	
1.15726342E+000	-1.19106144E+002	
1.17797672E+000	-1.19128410E+002	
1.19869003E+000	-1.19141855E+002	
1.21940333E+000	-1.19155551E+002	
1.24011664E+000	-1.19157870E+002	
1.26082995E+000	-1.19121876E+002	
1.28154325E+000	-1.19162915E+002	
1.30225656E+000	-1.19191626E+002	
1.32296986E+000	-1.19176209E+002	
1.34368317E+000	-1.19242519E+002	
1.36439647E+000	-1.19277722E+002	
1.38510978E+000	-1.19317960E+002	
1.40582308E+000	-1.19362430E+002	
1.42653639E+000	-1.19359078E+002	
1.44724969E+000	-1.19313931E+002	
1.46796300E+000	-1.19321501E+002	
1.48867630E+000	-1.19315114E+002	
1.50938961E+000	-1.19306168E+002	
1.53010291E+000	-1.19268411E+002	
1.55081622E+000	-1.19203332E+002	
1.57152953E+000	-1.19141179E+002	
