Acquired on 8/13/2021 at 12:05:01
Calibrated on 8/13/2021 at 11:06:07
Device Descriptor:  [none]
Scan Range (nm):  1539.624  --  1560.517
Measurement Type:  Reflection
Group Index:  1.500
Gain:  24 dB
Domain:  Time
Spatial Resolution (mm):  50.000000
Frequency domain window was applied to measurement data.
Number of Data Points (in this file):  16384
NOTE: Data stored in this file is decimated by a factor of 64.

Time (ns)	Amplitude (dB)	
-1.00072081E+001	-1.20620527E+002	
-9.98649484E+000	-1.20287376E+002	
-9.96578154E+000	-1.19925794E+002	
-9.94506823E+000	-1.19661386E+002	
-9.92435493E+000	-1.19435041E+002	
-9.90364162E+000	-1.19192023E+002	
-9.88292832E+000	-1.18978456E+002	
-9.86221501E+000	-1.18768001E+002	
-9.84150171E+000	-1.18568981E+002	
-9.82078840E+000	-1.18387695E+002	
-9.80007509E+000	-1.18187766E+002	
-9.77936179E+000	-1.17986015E+002	
-9.75864848E+000	-1.17932776E+002	
-9.73793518E+000	-1.17947247E+002	
-9.71722187E+000	-1.17942741E+002	
-9.69650857E+000	-1.17942538E+002	
-9.67579526E+000	-1.17995341E+002	
-9.65508196E+000	-1.17984491E+002	
-9.63436865E+000	-1.17934716E+002	
-9.61365535E+000	-1.17936017E+002	
-9.59294204E+000	-1.17968690E+002	
-9.57222874E+000	-1.17991226E+002	
-9.55151543E+000	-1.18001880E+002	
-9.53080213E+000	-1.17994370E+002	
-9.51008882E+000	-1.18022885E+002	
-9.48937552E+000	-1.18050751E+002	
-9.46866221E+000	-1.18054664E+002	
-9.44794890E+000	-1.18025140E+002	
-9.42723560E+000	-1.17977098E+002	
-9.40652229E+000	-1.17976702E+002	
-9.38580899E+000	-1.17950621E+002	
-9.36509568E+000	-1.17941087E+002	
-9.34438238E+000	-1.17905862E+002	
-9.32366907E+000	-1.17879742E+002	
-9.30295577E+000	-1.17878502E+002	
-9.28224246E+000	-1.17897991E+002	
-9.26152916E+000	-1.17848132E+002	
-9.24081585E+000	-1.17789858E+002	
-9.22010255E+000	-1.17777978E+002	
-9.19938924E+000	-1.17817965E+002	
-9.17867594E+000	-1.17807285E+002	
-9.15796263E+000	-1.17805464E+002	
-9.13724932E+000	-1.17859247E+002	
-9.11653602E+000	-1.17864079E+002	
-9.09582271E+000	-1.17818466E+002	
-9.07510941E+000	-1.17820286E+002	
-9.05439610E+000	-1.17825822E+002	
-9.03368280E+000	-1.17700862E+002	
-9.01296949E+000	-1.17682586E+002	
-8.99225619E+000	-1.17682579E+002	
-8.97154288E+000	-1.17734564E+002	
-8.95082958E+000	-1.17753843E+002	
-8.93011627E+000	-1.17780136E+002	
-8.90940297E+000	-1.17804266E+002	
-8.88868966E+000	-1.17829696E+002	
-8.86797636E+000	-1.17823604E+002	
-8.84726305E+000	-1.17843922E+002	
-8.82654974E+000	-1.17828328E+002	
-8.80583644E+000	-1.17842032E+002	
-8.78512313E+000	-1.17843436E+002	
-8.76440983E+000	-1.17864769E+002	
-8.74369652E+000	-1.17928861E+002	
-8.72298322E+000	-1.17945561E+002	
-8.70226991E+000	-1.17874764E+002	
-8.68155661E+000	-1.17838362E+002	
-8.66084330E+000	-1.17873001E+002	
-8.64013000E+000	-1.17850373E+002	
-8.61941669E+000	-1.17808094E+002	
-8.59870339E+000	-1.17850390E+002	
-8.57799008E+000	-1.17852710E+002	
-8.55727678E+000	-1.17809099E+002	
-8.53656347E+000	-1.17929136E+002	
-8.51585017E+000	-1.17961054E+002	
-8.49513686E+000	-1.17969130E+002	
-8.47442355E+000	-1.17953603E+002	
-8.45371025E+000	-1.17983250E+002	
-8.43299694E+000	-1.18023085E+002	
-8.41228364E+000	-1.17981716E+002	
-8.39157033E+000	-1.17954996E+002	
-8.37085703E+000	-1.17999848E+002	
-8.35014372E+000	-1.18012439E+002	
-8.32943042E+000	-1.18034986E+002	
-8.30871711E+000	-1.17990937E+002	
-8.28800381E+000	-1.18030757E+002	
-8.26729050E+000	-1.18010277E+002	
-8.24657720E+000	-1.18000896E+002	
-8.22586389E+000	-1.17983087E+002	
-8.20515059E+000	-1.18032972E+002	
-8.18443728E+000	-1.18028494E+002	
-8.16372397E+000	-1.18015560E+002	
-8.14301067E+000	-1.17967640E+002	
-8.12229736E+000	-1.17984651E+002	
-8.10158406E+000	-1.17982796E+002	
-8.08087075E+000	-1.17973024E+002	
-8.06015745E+000	-1.17953079E+002	
-8.03944414E+000	-1.17895857E+002	
-8.01873084E+000	-1.17907414E+002	
-7.99801753E+000	-1.17885621E+002	
-7.97730423E+000	-1.17878897E+002	
-7.95659092E+000	-1.17848386E+002	
-7.93587762E+000	-1.17862736E+002	
-7.91516431E+000	-1.17900342E+002	
-7.89445101E+000	-1.17901609E+002	
-7.87373770E+000	-1.17882979E+002	
-7.85302439E+000	-1.17872780E+002	
-7.83231109E+000	-1.17850259E+002	
-7.81159778E+000	-1.17904957E+002	
-7.79088448E+000	-1.17926230E+002	
-7.77017117E+000	-1.17949967E+002	
-7.74945787E+000	-1.17965964E+002	
-7.72874456E+000	-1.17978024E+002	
-7.70803126E+000	-1.17934567E+002	
-7.68731795E+000	-1.17967212E+002	
-7.66660465E+000	-1.17961014E+002	
-7.64589134E+000	-1.17960865E+002	
-7.62517804E+000	-1.17947260E+002	
-7.60446473E+000	-1.17883987E+002	
-7.58375143E+000	-1.17902571E+002	
-7.56303812E+000	-1.17933201E+002	
-7.54232482E+000	-1.18006806E+002	
-7.52161151E+000	-1.17995403E+002	
-7.50089820E+000	-1.18017584E+002	
-7.48018490E+000	-1.17991366E+002	
-7.45947159E+000	-1.18038284E+002	
-7.43875829E+000	-1.17966764E+002	
-7.41804498E+000	-1.17880773E+002	
-7.39733168E+000	-1.17928871E+002	
-7.37661837E+000	-1.17939808E+002	
-7.35590507E+000	-1.17951752E+002	
-7.33519176E+000	-1.17971706E+002	
-7.31447846E+000	-1.17986222E+002	
-7.29376515E+000	-1.17956637E+002	
-7.27305185E+000	-1.17923003E+002	
-7.25233854E+000	-1.17952202E+002	
-7.23162524E+000	-1.17965624E+002	
-7.21091193E+000	-1.17961064E+002	
-7.19019862E+000	-1.17963243E+002	
-7.16948532E+000	-1.18008803E+002	
-7.14877201E+000	-1.18077773E+002	
-7.12805871E+000	-1.18133619E+002	
-7.10734540E+000	-1.18203259E+002	
-7.08663210E+000	-1.18240366E+002	
-7.06591879E+000	-1.18219334E+002	
-7.04520549E+000	-1.18196171E+002	
-7.02449218E+000	-1.18167525E+002	
-7.00377888E+000	-1.18132972E+002	
-6.98306557E+000	-1.18172728E+002	
-6.96235227E+000	-1.18123932E+002	
-6.94163896E+000	-1.18143704E+002	
-6.92092566E+000	-1.18210293E+002	
-6.90021235E+000	-1.18199796E+002	
-6.87949904E+000	-1.18165461E+002	
-6.85878574E+000	-1.18148996E+002	
-6.83807243E+000	-1.18172789E+002	
-6.81735913E+000	-1.18193088E+002	
-6.79664582E+000	-1.18154110E+002	
-6.77593252E+000	-1.18197674E+002	
-6.75521921E+000	-1.18155031E+002	
-6.73450591E+000	-1.18146592E+002	
-6.71379260E+000	-1.18121188E+002	
-6.69307930E+000	-1.18118575E+002	
-6.67236599E+000	-1.18071842E+002	
-6.65165269E+000	-1.18052680E+002	
-6.63093938E+000	-1.18071663E+002	
-6.61022608E+000	-1.18094338E+002	
-6.58951277E+000	-1.18088158E+002	
-6.56879947E+000	-1.18080113E+002	
-6.54808616E+000	-1.18072907E+002	
-6.52737285E+000	-1.18059470E+002	
-6.50665955E+000	-1.18079125E+002	
-6.48594624E+000	-1.18119649E+002	
-6.46523294E+000	-1.18167419E+002	
-6.44451963E+000	-1.18110492E+002	
-6.42380633E+000	-1.18071339E+002	
-6.40309302E+000	-1.18074025E+002	
-6.38237972E+000	-1.18046153E+002	
-6.36166641E+000	-1.18041156E+002	
-6.34095311E+000	-1.18042683E+002	
-6.32023980E+000	-1.18032505E+002	
-6.29952650E+000	-1.18039442E+002	
-6.27881319E+000	-1.18012320E+002	
-6.25809989E+000	-1.18021310E+002	
-6.23738658E+000	-1.18010188E+002	
-6.21667327E+000	-1.17992553E+002	
-6.19595997E+000	-1.17999922E+002	
-6.17524666E+000	-1.17995484E+002	
-6.15453336E+000	-1.17998987E+002	
-6.13382005E+000	-1.17976757E+002	
-6.11310675E+000	-1.17979352E+002	
-6.09239344E+000	-1.17974782E+002	
-6.07168014E+000	-1.17925329E+002	
-6.05096683E+000	-1.17996345E+002	
-6.03025353E+000	-1.18010585E+002	
-6.00954022E+000	-1.18001745E+002	
-5.98882692E+000	-1.17952377E+002	
-5.96811361E+000	-1.17957532E+002	
-5.94740031E+000	-1.18003778E+002	
-5.92668700E+000	-1.18039939E+002	
-5.90597369E+000	-1.18050085E+002	
-5.88526039E+000	-1.18098987E+002	
-5.86454708E+000	-1.18127794E+002	
-5.84383378E+000	-1.18093347E+002	
-5.82312047E+000	-1.18110639E+002	
-5.80240717E+000	-1.18087157E+002	
-5.78169386E+000	-1.18100879E+002	
-5.76098056E+000	-1.18103000E+002	
-5.74026725E+000	-1.18110432E+002	
-5.71955395E+000	-1.18150566E+002	
-5.69884064E+000	-1.18159093E+002	
-5.67812734E+000	-1.18188094E+002	
-5.65741403E+000	-1.18181175E+002	
-5.63670073E+000	-1.18191461E+002	
-5.61598742E+000	-1.18165918E+002	
-5.59527412E+000	-1.18125300E+002	
-5.57456081E+000	-1.18188416E+002	
-5.55384750E+000	-1.18093200E+002	
-5.53313420E+000	-1.18021721E+002	
-5.51242089E+000	-1.18034666E+002	
-5.49170759E+000	-1.18029966E+002	
-5.47099428E+000	-1.18000544E+002	
-5.45028098E+000	-1.18056284E+002	
-5.42956767E+000	-1.18107416E+002	
-5.40885437E+000	-1.18098013E+002	
-5.38814106E+000	-1.18077401E+002	
-5.36742776E+000	-1.18047636E+002	
-5.34671445E+000	-1.18074909E+002	
-5.32600115E+000	-1.18073382E+002	
-5.30528784E+000	-1.18090806E+002	
-5.28457454E+000	-1.18062746E+002	
-5.26386123E+000	-1.18051187E+002	
-5.24314792E+000	-1.17984745E+002	
-5.22243462E+000	-1.17948062E+002	
-5.20172131E+000	-1.17949675E+002	
-5.18100801E+000	-1.17907421E+002	
-5.16029470E+000	-1.17900947E+002	
-5.13958140E+000	-1.17859586E+002	
-5.11886809E+000	-1.17838201E+002	
-5.09815479E+000	-1.17852546E+002	
-5.07744148E+000	-1.17818096E+002	
-5.05672818E+000	-1.17885114E+002	
-5.03601487E+000	-1.17904649E+002	
-5.01530157E+000	-1.17934957E+002	
-4.99458826E+000	-1.17943314E+002	
-4.97387496E+000	-1.17896050E+002	
-4.95316165E+000	-1.17885384E+002	
-4.93244834E+000	-1.17840423E+002	
-4.91173504E+000	-1.17821429E+002	
-4.89102173E+000	-1.17826476E+002	
-4.87030843E+000	-1.17864512E+002	
-4.84959512E+000	-1.17856143E+002	
-4.82888182E+000	-1.17820297E+002	
-4.80816851E+000	-1.17811015E+002	
-4.78745521E+000	-1.17828638E+002	
-4.76674190E+000	-1.17863021E+002	
-4.74602860E+000	-1.17890210E+002	
-4.72531529E+000	-1.17942190E+002	
-4.70460199E+000	-1.17928450E+002	
-4.68388868E+000	-1.17973772E+002	
-4.66317538E+000	-1.17971309E+002	
-4.64246207E+000	-1.18000947E+002	
-4.62174877E+000	-1.18034150E+002	
-4.60103546E+000	-1.18065841E+002	
-4.58032215E+000	-1.18086428E+002	
-4.55960885E+000	-1.18062808E+002	
-4.53889554E+000	-1.18096651E+002	
-4.51818224E+000	-1.18030115E+002	
-4.49746893E+000	-1.17993816E+002	
-4.47675563E+000	-1.18046186E+002	
-4.45604232E+000	-1.18040445E+002	
-4.43532902E+000	-1.18035520E+002	
-4.41461571E+000	-1.18022944E+002	
-4.39390241E+000	-1.18044034E+002	
-4.37318910E+000	-1.18048301E+002	
-4.35247580E+000	-1.18021741E+002	
-4.33176249E+000	-1.18009198E+002	
-4.31104919E+000	-1.18001590E+002	
-4.29033588E+000	-1.17993506E+002	
-4.26962257E+000	-1.17984479E+002	
-4.24890927E+000	-1.18024715E+002	
-4.22819596E+000	-1.18049439E+002	
-4.20748266E+000	-1.18099107E+002	
-4.18676935E+000	-1.18053932E+002	
-4.16605605E+000	-1.18064200E+002	
-4.14534274E+000	-1.18086120E+002	
-4.12462944E+000	-1.18053927E+002	
-4.10391613E+000	-1.18045999E+002	
-4.08320283E+000	-1.18039425E+002	
-4.06248952E+000	-1.18029474E+002	
-4.04177622E+000	-1.17992007E+002	
-4.02106291E+000	-1.18029111E+002	
-4.00034961E+000	-1.18029765E+002	
-3.97963630E+000	-1.17993881E+002	
-3.95892299E+000	-1.18005689E+002	
-3.93820969E+000	-1.17982440E+002	
-3.91749638E+000	-1.18008481E+002	
-3.89678308E+000	-1.17969514E+002	
-3.87606977E+000	-1.17888998E+002	
-3.85535647E+000	-1.17890968E+002	
-3.83464316E+000	-1.17890587E+002	
-3.81392986E+000	-1.17884984E+002	
-3.79321655E+000	-1.17918067E+002	
-3.77250325E+000	-1.17856099E+002	
-3.75178994E+000	-1.17857742E+002	
-3.73107664E+000	-1.17864284E+002	
-3.71036333E+000	-1.17791045E+002	
-3.68965003E+000	-1.17809931E+002	
-3.66893672E+000	-1.17848590E+002	
-3.64822342E+000	-1.17806391E+002	
-3.62751011E+000	-1.17816761E+002	
-3.60679680E+000	-1.17815937E+002	
-3.58608350E+000	-1.17813771E+002	
-3.56537019E+000	-1.17842433E+002	
-3.54465689E+000	-1.17857888E+002	
-3.52394358E+000	-1.17884547E+002	
-3.50323028E+000	-1.17927872E+002	
-3.48251697E+000	-1.17961374E+002	
-3.46180367E+000	-1.17984235E+002	
-3.44109036E+000	-1.18000027E+002	
-3.42037706E+000	-1.18029334E+002	
-3.39966375E+000	-1.18059399E+002	
-3.37895045E+000	-1.18111414E+002	
-3.35823714E+000	-1.18111344E+002	
-3.33752384E+000	-1.18117376E+002	
-3.31681053E+000	-1.18131789E+002	
-3.29609722E+000	-1.18098027E+002	
-3.27538392E+000	-1.18114775E+002	
-3.25467061E+000	-1.18116969E+002	
-3.23395731E+000	-1.18099855E+002	
-3.21324400E+000	-1.18131395E+002	
-3.19253070E+000	-1.18134052E+002	
-3.17181739E+000	-1.18114097E+002	
-3.15110409E+000	-1.18091784E+002	
-3.13039078E+000	-1.18081620E+002	
-3.10967748E+000	-1.18119045E+002	
-3.08896417E+000	-1.18109641E+002	
-3.06825087E+000	-1.18096038E+002	
-3.04753756E+000	-1.18105393E+002	
-3.02682426E+000	-1.18070734E+002	
-3.00611095E+000	-1.17997572E+002	
-2.98539764E+000	-1.18037579E+002	
-2.96468434E+000	-1.17997229E+002	
-2.94397103E+000	-1.17969754E+002	
-2.92325773E+000	-1.17926612E+002	
-2.90254442E+000	-1.17928642E+002	
-2.88183112E+000	-1.17944603E+002	
-2.86111781E+000	-1.17992663E+002	
-2.84040451E+000	-1.18031077E+002	
-2.81969120E+000	-1.18061583E+002	
-2.79897790E+000	-1.18127686E+002	
-2.77826459E+000	-1.18084229E+002	
-2.75755129E+000	-1.18059397E+002	
-2.73683798E+000	-1.18071078E+002	
-2.71612468E+000	-1.18021681E+002	
-2.69541137E+000	-1.18003916E+002	
-2.67469807E+000	-1.18060258E+002	
-2.65398476E+000	-1.18088838E+002	
-2.63327145E+000	-1.18086858E+002	
-2.61255815E+000	-1.18036781E+002	
-2.59184484E+000	-1.18038783E+002	
-2.57113154E+000	-1.18031086E+002	
-2.55041823E+000	-1.18030822E+002	
-2.52970493E+000	-1.18082723E+002	
-2.50899162E+000	-1.18147193E+002	
-2.48827832E+000	-1.18125983E+002	
-2.46756501E+000	-1.18128302E+002	
-2.44685171E+000	-1.18135842E+002	
-2.42613840E+000	-1.18158601E+002	
-2.40542510E+000	-1.18170241E+002	
-2.38471179E+000	-1.18150037E+002	
-2.36399849E+000	-1.18126479E+002	
-2.34328518E+000	-1.18081082E+002	
-2.32257187E+000	-1.18033545E+002	
-2.30185857E+000	-1.17959949E+002	
-2.28114526E+000	-1.17976800E+002	
-2.26043196E+000	-1.18054054E+002	
-2.23971865E+000	-1.18039724E+002	
-2.21900535E+000	-1.18093319E+002	
-2.19829204E+000	-1.18115718E+002	
-2.17757874E+000	-1.18076725E+002	
-2.15686543E+000	-1.18061139E+002	
-2.13615213E+000	-1.18112639E+002	
-2.11543882E+000	-1.18114525E+002	
-2.09472552E+000	-1.18124238E+002	
-2.07401221E+000	-1.18097784E+002	
-2.05329891E+000	-1.18049376E+002	
-2.03258560E+000	-1.18060856E+002	
-2.01187229E+000	-1.18056019E+002	
-1.99115899E+000	-1.18063099E+002	
-1.97044568E+000	-1.17997134E+002	
-1.94973238E+000	-1.18007058E+002	
-1.92901907E+000	-1.17994531E+002	
-1.90830577E+000	-1.17950509E+002	
-1.88759246E+000	-1.17948204E+002	
-1.86687916E+000	-1.17984242E+002	
-1.84616585E+000	-1.17948193E+002	
-1.82545255E+000	-1.18020376E+002	
-1.80473924E+000	-1.18032343E+002	
-1.78402594E+000	-1.18073266E+002	
-1.76331263E+000	-1.18069337E+002	
-1.74259933E+000	-1.18023494E+002	
-1.72188602E+000	-1.18022193E+002	
-1.70117272E+000	-1.18092386E+002	
-1.68045941E+000	-1.18112195E+002	
-1.65974610E+000	-1.18073012E+002	
-1.63903280E+000	-1.18033425E+002	
-1.61831949E+000	-1.18092129E+002	
-1.59760619E+000	-1.18107825E+002	
-1.57689288E+000	-1.18122135E+002	
-1.55617958E+000	-1.18181775E+002	
-1.53546627E+000	-1.18164848E+002	
-1.51475297E+000	-1.18171014E+002	
-1.49403966E+000	-1.18145366E+002	
-1.47332636E+000	-1.18195814E+002	
-1.45261305E+000	-1.18166661E+002	
-1.43189975E+000	-1.18164937E+002	
-1.41118644E+000	-1.18160213E+002	
-1.39047314E+000	-1.18182279E+002	
-1.36975983E+000	-1.18144285E+002	
-1.34904652E+000	-1.18147842E+002	
-1.32833322E+000	-1.18107027E+002	
-1.30761991E+000	-1.18057750E+002	
-1.28690661E+000	-1.18066244E+002	
-1.26619330E+000	-1.18061125E+002	
-1.24548000E+000	-1.18112982E+002	
-1.22476669E+000	-1.18135604E+002	
-1.20405339E+000	-1.18040261E+002	
-1.18334008E+000	-1.18032425E+002	
-1.16262678E+000	-1.18095273E+002	
-1.14191347E+000	-1.18124064E+002	
-1.12120017E+000	-1.18114388E+002	
-1.10048686E+000	-1.18082879E+002	
-1.07977356E+000	-1.18086118E+002	
-1.05906025E+000	-1.18121058E+002	
-1.03834694E+000	-1.18104400E+002	
-1.01763364E+000	-1.18037438E+002	
-9.96920334E-001	-1.17951628E+002	
-9.76207029E-001	-1.17907097E+002	
-9.55493724E-001	-1.17923945E+002	
-9.34780418E-001	-1.17936610E+002	
-9.14067113E-001	-1.17975669E+002	
-8.93353808E-001	-1.17960939E+002	
-8.72640502E-001	-1.17936317E+002	
-8.51927197E-001	-1.17964597E+002	
-8.31213892E-001	-1.17991318E+002	
-8.10500586E-001	-1.18051995E+002	
-7.89787281E-001	-1.18073398E+002	
-7.69073976E-001	-1.18085686E+002	
-7.48360671E-001	-1.18076757E+002	
-7.27647365E-001	-1.18071310E+002	
-7.06934060E-001	-1.18094041E+002	
-6.86220755E-001	-1.18117898E+002	
-6.65507449E-001	-1.18146661E+002	
-6.44794144E-001	-1.18141412E+002	
-6.24080839E-001	-1.18108027E+002	
-6.03367533E-001	-1.18110848E+002	
-5.82654228E-001	-1.18089818E+002	
-5.61940923E-001	-1.18042716E+002	
-5.41227617E-001	-1.18006180E+002	
-5.20514312E-001	-1.18036872E+002	
-4.99801007E-001	-1.18137948E+002	
-4.79087701E-001	-1.18218649E+002	
-4.58374396E-001	-1.18250394E+002	
-4.37661091E-001	-1.18217252E+002	
-4.16947785E-001	-1.18195986E+002	
-3.96234480E-001	-1.18200947E+002	
-3.75521175E-001	-1.18211823E+002	
-3.54807869E-001	-1.18228686E+002	
-3.34094564E-001	-1.18240036E+002	
-3.13381259E-001	-1.18254510E+002	
-2.92667954E-001	-1.18181360E+002	
-2.71954648E-001	-1.17993845E+002	
-2.51241343E-001	-8.60789647E+001	
-2.30528038E-001	-8.57455433E+001	
-2.09814732E-001	-8.57455055E+001	
-1.89101427E-001	-8.57455043E+001	
-1.68388122E-001	-8.57454994E+001	
-1.47674816E-001	-8.57454788E+001	
-1.26961511E-001	-8.57454148E+001	
-1.06248206E-001	-8.57453583E+001	
-8.55349003E-002	-8.57453674E+001	
-6.48215950E-002	-8.57454046E+001	
-4.41082897E-002	-8.57454636E+001	
-2.33949844E-002	-8.57454949E+001	
-2.68167905E-003	-8.57455095E+001	
1.80316263E-002	-8.57455037E+001	
3.87449316E-002	-8.57455207E+001	
5.94582369E-002	-8.57455674E+001	
8.01715422E-002	-8.57455958E+001	
1.00884848E-001	-8.57456193E+001	
1.21598153E-001	-8.57456607E+001	
1.42311458E-001	-8.57456702E+001	
1.63024763E-001	-8.57456828E+001	
1.83738069E-001	-8.57456713E+001	
2.04451374E-001	-8.57456857E+001	
2.25164679E-001	-8.57457664E+001	
2.45877985E-001	-9.22723591E+001	
2.66591290E-001	-1.18458049E+002	
2.87304595E-001	-1.18574648E+002	
3.08017901E-001	-1.18614006E+002	
3.28731206E-001	-1.18567230E+002	
3.49444511E-001	-1.18588017E+002	
3.70157817E-001	-1.18719039E+002	
3.90871122E-001	-1.18847677E+002	
4.11584427E-001	-1.18906037E+002	
4.32297733E-001	-1.18918995E+002	
4.53011038E-001	-1.18930378E+002	
4.73724343E-001	-1.18909731E+002	
4.94437649E-001	-1.18879879E+002	
5.15150954E-001	-1.18898597E+002	
5.35864259E-001	-1.18852524E+002	
5.56577565E-001	-1.18795179E+002	
5.77290870E-001	-1.18827835E+002	
5.98004175E-001	-1.18860028E+002	
6.18717481E-001	-1.18822670E+002	
6.39430786E-001	-1.18798370E+002	
6.60144091E-001	-1.18826926E+002	
6.80857396E-001	-1.18857959E+002	
7.01570702E-001	-1.18893225E+002	
7.22284007E-001	-1.18915150E+002	
7.42997312E-001	-1.18924229E+002	
7.63710618E-001	-1.18905678E+002	
7.84423923E-001	-1.18891170E+002	
8.05137228E-001	-1.18883341E+002	
8.25850534E-001	-1.18914394E+002	
8.46563839E-001	-1.18912531E+002	
8.67277144E-001	-1.18945880E+002	
8.87990450E-001	-1.18971779E+002	
9.08703755E-001	-1.18942004E+002	
9.29417060E-001	-1.18916512E+002	
9.50130366E-001	-1.18921303E+002	
9.70843671E-001	-1.18921123E+002	
9.91556976E-001	-1.18996134E+002	
1.01227028E+000	-1.18996329E+002	
1.03298359E+000	-1.19032100E+002	
1.05369689E+000	-1.19105472E+002	
1.07441020E+000	-1.19098478E+002	
1.09512350E+000	-1.19047675E+002	
1.11583681E+000	-1.19023147E+002	
1.13655011E+000	-1.19064076E+002	
1.15726342E+000	-1.19062639E+002	
1.17797672E+000	-1.19084284E+002	
1.19869003E+000	-1.19095600E+002	
1.21940333E+000	-1.19110252E+002	
1.24011664E+000	-1.19108968E+002	
1.26082995E+000	-1.19072629E+002	
1.28154325E+000	-1.19095645E+002	
1.30225656E+000	-1.19128008E+002	
1.32296986E+000	-1.19111261E+002	
1.34368317E+000	-1.19179607E+002	
1.36439647E+000	-1.19212333E+002	
1.38510978E+000	-1.19250863E+002	
1.40582308E+000	-1.19299484E+002	
1.42653639E+000	-1.19295846E+002	
1.44724969E+000	-1.19257828E+002	
1.46796300E+000	-1.19267798E+002	
1.48867630E+000	-1.19256836E+002	
1.50938961E+000	-1.19252596E+002	
1.53010291E+000	-1.19224192E+002	
1.55081622E+000	-1.19158155E+002	
1.57152953E+000	-1.19098239E+002	
