Acquired on 8/13/2021 at 12:43:57
Calibrated on 8/13/2021 at 11:06:07
Device Descriptor:  [none]
Scan Range (nm):  1539.624  --  1560.517
Measurement Type:  Reflection
Group Index:  1.500
Gain:  24 dB
Domain:  Time
Spatial Resolution (mm):  50.000000
Frequency domain window was applied to measurement data.
Number of Data Points (in this file):  16384
NOTE: Data stored in this file is decimated by a factor of 64.

Time (ns)	Amplitude (dB)	
-1.00072081E+001	-1.20713458E+002	
-9.98649484E+000	-1.20384477E+002	
-9.96578154E+000	-1.20033135E+002	
-9.94506823E+000	-1.19765170E+002	
-9.92435493E+000	-1.19533990E+002	
-9.90364162E+000	-1.19287240E+002	
-9.88292832E+000	-1.19065221E+002	
-9.86221501E+000	-1.18853516E+002	
-9.84150171E+000	-1.18653500E+002	
-9.82078840E+000	-1.18469726E+002	
-9.80007509E+000	-1.18271910E+002	
-9.77936179E+000	-1.18075634E+002	
-9.75864848E+000	-1.18017753E+002	
-9.73793518E+000	-1.18030690E+002	
-9.71722187E+000	-1.18024861E+002	
-9.69650857E+000	-1.18024986E+002	
-9.67579526E+000	-1.18080676E+002	
-9.65508196E+000	-1.18062919E+002	
-9.63436865E+000	-1.18008692E+002	
-9.61365535E+000	-1.18009258E+002	
-9.59294204E+000	-1.18037304E+002	
-9.57222874E+000	-1.18053314E+002	
-9.55151543E+000	-1.18069372E+002	
-9.53080213E+000	-1.18061593E+002	
-9.51008882E+000	-1.18093437E+002	
-9.48937552E+000	-1.18118845E+002	
-9.46866221E+000	-1.18113770E+002	
-9.44794890E+000	-1.18086593E+002	
-9.42723560E+000	-1.18040413E+002	
-9.40652229E+000	-1.18042052E+002	
-9.38580899E+000	-1.18025875E+002	
-9.36509568E+000	-1.18018412E+002	
-9.34438238E+000	-1.17982795E+002	
-9.32366907E+000	-1.17953494E+002	
-9.30295577E+000	-1.17948275E+002	
-9.28224246E+000	-1.17963278E+002	
-9.26152916E+000	-1.17916744E+002	
-9.24081585E+000	-1.17860661E+002	
-9.22010255E+000	-1.17851639E+002	
-9.19938924E+000	-1.17888331E+002	
-9.17867594E+000	-1.17872078E+002	
-9.15796263E+000	-1.17872762E+002	
-9.13724932E+000	-1.17934630E+002	
-9.11653602E+000	-1.17938033E+002	
-9.09582271E+000	-1.17895639E+002	
-9.07510941E+000	-1.17905480E+002	
-9.05439610E+000	-1.17907604E+002	
-9.03368280E+000	-1.17782193E+002	
-9.01296949E+000	-1.17771761E+002	
-8.99225619E+000	-1.17781105E+002	
-8.97154288E+000	-1.17832709E+002	
-8.95082958E+000	-1.17851018E+002	
-8.93011627E+000	-1.17878402E+002	
-8.90940297E+000	-1.17901135E+002	
-8.88868966E+000	-1.17928518E+002	
-8.86797636E+000	-1.17922283E+002	
-8.84726305E+000	-1.17941037E+002	
-8.82654974E+000	-1.17934115E+002	
-8.80583644E+000	-1.17948531E+002	
-8.78512313E+000	-1.17947841E+002	
-8.76440983E+000	-1.17965174E+002	
-8.74369652E+000	-1.18027093E+002	
-8.72298322E+000	-1.18040266E+002	
-8.70226991E+000	-1.17970842E+002	
-8.68155661E+000	-1.17934545E+002	
-8.66084330E+000	-1.17970109E+002	
-8.64013000E+000	-1.17942473E+002	
-8.61941669E+000	-1.17901421E+002	
-8.59870339E+000	-1.17945342E+002	
-8.57799008E+000	-1.17948566E+002	
-8.55727678E+000	-1.17910168E+002	
-8.53656347E+000	-1.18025474E+002	
-8.51585017E+000	-1.18042453E+002	
-8.49513686E+000	-1.18041845E+002	
-8.47442355E+000	-1.18026951E+002	
-8.45371025E+000	-1.18058963E+002	
-8.43299694E+000	-1.18100890E+002	
-8.41228364E+000	-1.18064113E+002	
-8.39157033E+000	-1.18035115E+002	
-8.37085703E+000	-1.18078710E+002	
-8.35014372E+000	-1.18092992E+002	
-8.32943042E+000	-1.18111210E+002	
-8.30871711E+000	-1.18064972E+002	
-8.28800381E+000	-1.18103020E+002	
-8.26729050E+000	-1.18088075E+002	
-8.24657720E+000	-1.18075107E+002	
-8.22586389E+000	-1.18061110E+002	
-8.20515059E+000	-1.18111924E+002	
-8.18443728E+000	-1.18116459E+002	
-8.16372397E+000	-1.18098303E+002	
-8.14301067E+000	-1.18043938E+002	
-8.12229736E+000	-1.18060958E+002	
-8.10158406E+000	-1.18056268E+002	
-8.08087075E+000	-1.18052704E+002	
-8.06015745E+000	-1.18033626E+002	
-8.03944414E+000	-1.17980661E+002	
-8.01873084E+000	-1.18002429E+002	
-7.99801753E+000	-1.17985299E+002	
-7.97730423E+000	-1.17976085E+002	
-7.95659092E+000	-1.17949354E+002	
-7.93587762E+000	-1.17956482E+002	
-7.91516431E+000	-1.17998360E+002	
-7.89445101E+000	-1.17994805E+002	
-7.87373770E+000	-1.17974441E+002	
-7.85302439E+000	-1.17965277E+002	
-7.83231109E+000	-1.17943035E+002	
-7.81159778E+000	-1.17999791E+002	
-7.79088448E+000	-1.18023378E+002	
-7.77017117E+000	-1.18042325E+002	
-7.74945787E+000	-1.18060119E+002	
-7.72874456E+000	-1.18068111E+002	
-7.70803126E+000	-1.18025675E+002	
-7.68731795E+000	-1.18057815E+002	
-7.66660465E+000	-1.18052820E+002	
-7.64589134E+000	-1.18058650E+002	
-7.62517804E+000	-1.18043625E+002	
-7.60446473E+000	-1.17985309E+002	
-7.58375143E+000	-1.18001965E+002	
-7.56303812E+000	-1.18031148E+002	
-7.54232482E+000	-1.18101173E+002	
-7.52161151E+000	-1.18088765E+002	
-7.50089820E+000	-1.18105623E+002	
-7.48018490E+000	-1.18076056E+002	
-7.45947159E+000	-1.18118160E+002	
-7.43875829E+000	-1.18049077E+002	
-7.41804498E+000	-1.17959504E+002	
-7.39733168E+000	-1.18006811E+002	
-7.37661837E+000	-1.18015835E+002	
-7.35590507E+000	-1.18021931E+002	
-7.33519176E+000	-1.18040909E+002	
-7.31447846E+000	-1.18058659E+002	
-7.29376515E+000	-1.18037304E+002	
-7.27305185E+000	-1.18008618E+002	
-7.25233854E+000	-1.18035686E+002	
-7.23162524E+000	-1.18051466E+002	
-7.21091193E+000	-1.18043873E+002	
-7.19019862E+000	-1.18039745E+002	
-7.16948532E+000	-1.18087400E+002	
-7.14877201E+000	-1.18159633E+002	
-7.12805871E+000	-1.18217790E+002	
-7.10734540E+000	-1.18288320E+002	
-7.08663210E+000	-1.18322464E+002	
-7.06591879E+000	-1.18304163E+002	
-7.04520549E+000	-1.18284347E+002	
-7.02449218E+000	-1.18257463E+002	
-7.00377888E+000	-1.18217475E+002	
-6.98306557E+000	-1.18259677E+002	
-6.96235227E+000	-1.18216198E+002	
-6.94163896E+000	-1.18240043E+002	
-6.92092566E+000	-1.18310172E+002	
-6.90021235E+000	-1.18298021E+002	
-6.87949904E+000	-1.18266630E+002	
-6.85878574E+000	-1.18256080E+002	
-6.83807243E+000	-1.18290694E+002	
-6.81735913E+000	-1.18305629E+002	
-6.79664582E+000	-1.18261977E+002	
-6.77593252E+000	-1.18299675E+002	
-6.75521921E+000	-1.18256643E+002	
-6.73450591E+000	-1.18242663E+002	
-6.71379260E+000	-1.18215246E+002	
-6.69307930E+000	-1.18218442E+002	
-6.67236599E+000	-1.18178023E+002	
-6.65165269E+000	-1.18157881E+002	
-6.63093938E+000	-1.18174345E+002	
-6.61022608E+000	-1.18193102E+002	
-6.58951277E+000	-1.18179793E+002	
-6.56879947E+000	-1.18166673E+002	
-6.54808616E+000	-1.18156267E+002	
-6.52737285E+000	-1.18130630E+002	
-6.50665955E+000	-1.18157596E+002	
-6.48594624E+000	-1.18199218E+002	
-6.46523294E+000	-1.18237805E+002	
-6.44451963E+000	-1.18175584E+002	
-6.42380633E+000	-1.18132664E+002	
-6.40309302E+000	-1.18136534E+002	
-6.38237972E+000	-1.18115469E+002	
-6.36166641E+000	-1.18111026E+002	
-6.34095311E+000	-1.18104105E+002	
-6.32023980E+000	-1.18095162E+002	
-6.29952650E+000	-1.18104492E+002	
-6.27881319E+000	-1.18084863E+002	
-6.25809989E+000	-1.18098453E+002	
-6.23738658E+000	-1.18091833E+002	
-6.21667327E+000	-1.18078266E+002	
-6.19595997E+000	-1.18088094E+002	
-6.17524666E+000	-1.18083222E+002	
-6.15453336E+000	-1.18084413E+002	
-6.13382005E+000	-1.18066071E+002	
-6.11310675E+000	-1.18072383E+002	
-6.09239344E+000	-1.18073416E+002	
-6.07168014E+000	-1.18019701E+002	
-6.05096683E+000	-1.18083724E+002	
-6.03025353E+000	-1.18110823E+002	
-6.00954022E+000	-1.18103470E+002	
-5.98882692E+000	-1.18055980E+002	
-5.96811361E+000	-1.18060100E+002	
-5.94740031E+000	-1.18105240E+002	
-5.92668700E+000	-1.18147150E+002	
-5.90597369E+000	-1.18162866E+002	
-5.88526039E+000	-1.18208026E+002	
-5.86454708E+000	-1.18230581E+002	
-5.84383378E+000	-1.18200119E+002	
-5.82312047E+000	-1.18225239E+002	
-5.80240717E+000	-1.18201786E+002	
-5.78169386E+000	-1.18208669E+002	
-5.76098056E+000	-1.18211015E+002	
-5.74026725E+000	-1.18216392E+002	
-5.71955395E+000	-1.18268799E+002	
-5.69884064E+000	-1.18270548E+002	
-5.67812734E+000	-1.18300812E+002	
-5.65741403E+000	-1.18294504E+002	
-5.63670073E+000	-1.18300356E+002	
-5.61598742E+000	-1.18271748E+002	
-5.59527412E+000	-1.18229967E+002	
-5.57456081E+000	-1.18303588E+002	
-5.55384750E+000	-1.18221133E+002	
-5.53313420E+000	-1.18142059E+002	
-5.51242089E+000	-1.18152870E+002	
-5.49170759E+000	-1.18151732E+002	
-5.47099428E+000	-1.18133790E+002	
-5.45028098E+000	-1.18191152E+002	
-5.42956767E+000	-1.18233743E+002	
-5.40885437E+000	-1.18210136E+002	
-5.38814106E+000	-1.18191718E+002	
-5.36742776E+000	-1.18171048E+002	
-5.34671445E+000	-1.18199397E+002	
-5.32600115E+000	-1.18186321E+002	
-5.30528784E+000	-1.18199122E+002	
-5.28457454E+000	-1.18170975E+002	
-5.26386123E+000	-1.18158687E+002	
-5.24314792E+000	-1.18104035E+002	
-5.22243462E+000	-1.18071597E+002	
-5.20172131E+000	-1.18080747E+002	
-5.18100801E+000	-1.18025981E+002	
-5.16029470E+000	-1.18008932E+002	
-5.13958140E+000	-1.17968456E+002	
-5.11886809E+000	-1.17949449E+002	
-5.09815479E+000	-1.17958059E+002	
-5.07744148E+000	-1.17917409E+002	
-5.05672818E+000	-1.17981912E+002	
-5.03601487E+000	-1.17997025E+002	
-5.01530157E+000	-1.18026140E+002	
-4.99458826E+000	-1.18036257E+002	
-4.97387496E+000	-1.17981551E+002	
-4.95316165E+000	-1.17974928E+002	
-4.93244834E+000	-1.17936597E+002	
-4.91173504E+000	-1.17927418E+002	
-4.89102173E+000	-1.17927730E+002	
-4.87030843E+000	-1.17960147E+002	
-4.84959512E+000	-1.17947626E+002	
-4.82888182E+000	-1.17915200E+002	
-4.80816851E+000	-1.17902569E+002	
-4.78745521E+000	-1.17920531E+002	
-4.76674190E+000	-1.17950651E+002	
-4.74602860E+000	-1.17962564E+002	
-4.72531529E+000	-1.18010578E+002	
-4.70460199E+000	-1.17994411E+002	
-4.68388868E+000	-1.18045402E+002	
-4.66317538E+000	-1.18045243E+002	
-4.64246207E+000	-1.18085097E+002	
-4.62174877E+000	-1.18120434E+002	
-4.60103546E+000	-1.18159290E+002	
-4.58032215E+000	-1.18181931E+002	
-4.55960885E+000	-1.18154293E+002	
-4.53889554E+000	-1.18190445E+002	
-4.51818224E+000	-1.18121882E+002	
-4.49746893E+000	-1.18073980E+002	
-4.47675563E+000	-1.18122634E+002	
-4.45604232E+000	-1.18109345E+002	
-4.43532902E+000	-1.18106250E+002	
-4.41461571E+000	-1.18095371E+002	
-4.39390241E+000	-1.18116634E+002	
-4.37318910E+000	-1.18121858E+002	
-4.35247580E+000	-1.18096138E+002	
-4.33176249E+000	-1.18082622E+002	
-4.31104919E+000	-1.18087407E+002	
-4.29033588E+000	-1.18082025E+002	
-4.26962257E+000	-1.18077631E+002	
-4.24890927E+000	-1.18129271E+002	
-4.22819596E+000	-1.18142361E+002	
-4.20748266E+000	-1.18185528E+002	
-4.18676935E+000	-1.18129342E+002	
-4.16605605E+000	-1.18141438E+002	
-4.14534274E+000	-1.18160097E+002	
-4.12462944E+000	-1.18126831E+002	
-4.10391613E+000	-1.18117948E+002	
-4.08320283E+000	-1.18105424E+002	
-4.06248952E+000	-1.18100708E+002	
-4.04177622E+000	-1.18064322E+002	
-4.02106291E+000	-1.18098424E+002	
-4.00034961E+000	-1.18103742E+002	
-3.97963630E+000	-1.18072047E+002	
-3.95892299E+000	-1.18088103E+002	
-3.93820969E+000	-1.18066331E+002	
-3.91749638E+000	-1.18080386E+002	
-3.89678308E+000	-1.18045886E+002	
-3.87606977E+000	-1.17971447E+002	
-3.85535647E+000	-1.17974992E+002	
-3.83464316E+000	-1.17972400E+002	
-3.81392986E+000	-1.17968230E+002	
-3.79321655E+000	-1.17996170E+002	
-3.77250325E+000	-1.17929540E+002	
-3.75178994E+000	-1.17928704E+002	
-3.73107664E+000	-1.17935473E+002	
-3.71036333E+000	-1.17869722E+002	
-3.68965003E+000	-1.17905853E+002	
-3.66893672E+000	-1.17950631E+002	
-3.64822342E+000	-1.17909309E+002	
-3.62751011E+000	-1.17918201E+002	
-3.60679680E+000	-1.17916661E+002	
-3.58608350E+000	-1.17924090E+002	
-3.56537019E+000	-1.17951868E+002	
-3.54465689E+000	-1.17968104E+002	
-3.52394358E+000	-1.17998762E+002	
-3.50323028E+000	-1.18041307E+002	
-3.48251697E+000	-1.18071574E+002	
-3.46180367E+000	-1.18092211E+002	
-3.44109036E+000	-1.18106141E+002	
-3.42037706E+000	-1.18142962E+002	
-3.39966375E+000	-1.18174819E+002	
-3.37895045E+000	-1.18227634E+002	
-3.35823714E+000	-1.18221034E+002	
-3.33752384E+000	-1.18227938E+002	
-3.31681053E+000	-1.18234373E+002	
-3.29609722E+000	-1.18201321E+002	
-3.27538392E+000	-1.18217385E+002	
-3.25467061E+000	-1.18219996E+002	
-3.23395731E+000	-1.18202564E+002	
-3.21324400E+000	-1.18224159E+002	
-3.19253070E+000	-1.18218459E+002	
-3.17181739E+000	-1.18190679E+002	
-3.15110409E+000	-1.18165967E+002	
-3.13039078E+000	-1.18154102E+002	
-3.10967748E+000	-1.18191572E+002	
-3.08896417E+000	-1.18173111E+002	
-3.06825087E+000	-1.18158856E+002	
-3.04753756E+000	-1.18168469E+002	
-3.02682426E+000	-1.18132723E+002	
-3.00611095E+000	-1.18060038E+002	
-2.98539764E+000	-1.18099737E+002	
-2.96468434E+000	-1.18061725E+002	
-2.94397103E+000	-1.18035555E+002	
-2.92325773E+000	-1.17992220E+002	
-2.90254442E+000	-1.17991935E+002	
-2.88183112E+000	-1.18002398E+002	
-2.86111781E+000	-1.18051306E+002	
-2.84040451E+000	-1.18092778E+002	
-2.81969120E+000	-1.18126469E+002	
-2.79897790E+000	-1.18194715E+002	
-2.77826459E+000	-1.18154408E+002	
-2.75755129E+000	-1.18132807E+002	
-2.73683798E+000	-1.18145322E+002	
-2.71612468E+000	-1.18102448E+002	
-2.69541137E+000	-1.18078129E+002	
-2.67469807E+000	-1.18139064E+002	
-2.65398476E+000	-1.18163802E+002	
-2.63327145E+000	-1.18160141E+002	
-2.61255815E+000	-1.18103778E+002	
-2.59184484E+000	-1.18101834E+002	
-2.57113154E+000	-1.18089104E+002	
-2.55041823E+000	-1.18088586E+002	
-2.52970493E+000	-1.18142737E+002	
-2.50899162E+000	-1.18208949E+002	
-2.48827832E+000	-1.18193424E+002	
-2.46756501E+000	-1.18195876E+002	
-2.44685171E+000	-1.18200188E+002	
-2.42613840E+000	-1.18223009E+002	
-2.40542510E+000	-1.18235031E+002	
-2.38471179E+000	-1.18213862E+002	
-2.36399849E+000	-1.18191060E+002	
-2.34328518E+000	-1.18144792E+002	
-2.32257187E+000	-1.18096958E+002	
-2.30185857E+000	-1.18024549E+002	
-2.28114526E+000	-1.18048406E+002	
-2.26043196E+000	-1.18122999E+002	
-2.23971865E+000	-1.18109798E+002	
-2.21900535E+000	-1.18160598E+002	
-2.19829204E+000	-1.18184965E+002	
-2.17757874E+000	-1.18147018E+002	
-2.15686543E+000	-1.18138252E+002	
-2.13615213E+000	-1.18193941E+002	
-2.11543882E+000	-1.18202572E+002	
-2.09472552E+000	-1.18220819E+002	
-2.07401221E+000	-1.18197577E+002	
-2.05329891E+000	-1.18151108E+002	
-2.03258560E+000	-1.18156425E+002	
-2.01187229E+000	-1.18153525E+002	
-1.99115899E+000	-1.18159930E+002	
-1.97044568E+000	-1.18090532E+002	
-1.94973238E+000	-1.18102672E+002	
-1.92901907E+000	-1.18086706E+002	
-1.90830577E+000	-1.18039855E+002	
-1.88759246E+000	-1.18039244E+002	
-1.86687916E+000	-1.18074021E+002	
-1.84616585E+000	-1.18047997E+002	
-1.82545255E+000	-1.18123982E+002	
-1.80473924E+000	-1.18131748E+002	
-1.78402594E+000	-1.18167848E+002	
-1.76331263E+000	-1.18164261E+002	
-1.74259933E+000	-1.18114488E+002	
-1.72188602E+000	-1.18115581E+002	
-1.70117272E+000	-1.18190963E+002	
-1.68045941E+000	-1.18216807E+002	
-1.65974610E+000	-1.18173918E+002	
-1.63903280E+000	-1.18135382E+002	
-1.61831949E+000	-1.18191609E+002	
-1.59760619E+000	-1.18200947E+002	
-1.57689288E+000	-1.18211373E+002	
-1.55617958E+000	-1.18266550E+002	
-1.53546627E+000	-1.18249797E+002	
-1.51475297E+000	-1.18256740E+002	
-1.49403966E+000	-1.18229054E+002	
-1.47332636E+000	-1.18281415E+002	
-1.45261305E+000	-1.18254986E+002	
-1.43189975E+000	-1.18254089E+002	
-1.41118644E+000	-1.18247047E+002	
-1.39047314E+000	-1.18272121E+002	
-1.36975983E+000	-1.18234842E+002	
-1.34904652E+000	-1.18233064E+002	
-1.32833322E+000	-1.18184967E+002	
-1.30761991E+000	-1.18134186E+002	
-1.28690661E+000	-1.18141158E+002	
-1.26619330E+000	-1.18135700E+002	
-1.24548000E+000	-1.18190212E+002	
-1.22476669E+000	-1.18211787E+002	
-1.20405339E+000	-1.18110039E+002	
-1.18334008E+000	-1.18097775E+002	
-1.16262678E+000	-1.18162163E+002	
-1.14191347E+000	-1.18187804E+002	
-1.12120017E+000	-1.18176371E+002	
-1.10048686E+000	-1.18149827E+002	
-1.07977356E+000	-1.18159098E+002	
-1.05906025E+000	-1.18194637E+002	
-1.03834694E+000	-1.18179678E+002	
-1.01763364E+000	-1.18114185E+002	
-9.96920334E-001	-1.18030197E+002	
-9.76207029E-001	-1.17986526E+002	
-9.55493724E-001	-1.18002231E+002	
-9.34780418E-001	-1.18014038E+002	
-9.14067113E-001	-1.18051563E+002	
-8.93353808E-001	-1.18030332E+002	
-8.72640502E-001	-1.18008108E+002	
-8.51927197E-001	-1.18034851E+002	
-8.31213892E-001	-1.18063417E+002	
-8.10500586E-001	-1.18127133E+002	
-7.89787281E-001	-1.18148055E+002	
-7.69073976E-001	-1.18158532E+002	
-7.48360671E-001	-1.18143867E+002	
-7.27647365E-001	-1.18136162E+002	
-7.06934060E-001	-1.18163970E+002	
-6.86220755E-001	-1.18189750E+002	
-6.65507449E-001	-1.18213568E+002	
-6.44794144E-001	-1.18207490E+002	
-6.24080839E-001	-1.18175923E+002	
-6.03367533E-001	-1.18177172E+002	
-5.82654228E-001	-1.18152615E+002	
-5.61940923E-001	-1.18102552E+002	
-5.41227617E-001	-1.18061806E+002	
-5.20514312E-001	-1.18088418E+002	
-4.99801007E-001	-1.18189474E+002	
-4.79087701E-001	-1.18271208E+002	
-4.58374396E-001	-1.18304048E+002	
-4.37661091E-001	-1.18270119E+002	
-4.16947785E-001	-1.18255282E+002	
-3.96234480E-001	-1.18267559E+002	
-3.75521175E-001	-1.18271926E+002	
-3.54807869E-001	-1.18282886E+002	
-3.34094564E-001	-1.18288166E+002	
-3.13381259E-001	-1.18300250E+002	
-2.92667954E-001	-1.18255903E+002	
-2.71954648E-001	-1.18183070E+002	
-2.51241343E-001	-8.59327941E+001	
-2.30528038E-001	-8.56054487E+001	
-2.09814732E-001	-8.56054103E+001	
-1.89101427E-001	-8.56054104E+001	
-1.68388122E-001	-8.56054038E+001	
-1.47674816E-001	-8.56053809E+001	
-1.26961511E-001	-8.56053259E+001	
-1.06248206E-001	-8.56052814E+001	
-8.55349003E-002	-8.56052976E+001	
-6.48215950E-002	-8.56053312E+001	
-4.41082897E-002	-8.56053897E+001	
-2.33949844E-002	-8.56054218E+001	
-2.68167905E-003	-8.56054421E+001	
1.80316263E-002	-8.56054319E+001	
3.87449316E-002	-8.56054410E+001	
5.94582369E-002	-8.56054849E+001	
8.01715422E-002	-8.56055132E+001	
1.00884848E-001	-8.56055311E+001	
1.21598153E-001	-8.56055759E+001	
1.42311458E-001	-8.56055884E+001	
1.63024763E-001	-8.56056011E+001	
1.83738069E-001	-8.56055897E+001	
2.04451374E-001	-8.56055915E+001	
2.25164679E-001	-8.56056106E+001	
2.45877985E-001	-9.21580169E+001	
2.66591290E-001	-1.18557563E+002	
2.87304595E-001	-1.18651480E+002	
3.08017901E-001	-1.18687350E+002	
3.28731206E-001	-1.18646479E+002	
3.49444511E-001	-1.18666528E+002	
3.70157817E-001	-1.18789836E+002	
3.90871122E-001	-1.18900200E+002	
4.11584427E-001	-1.18936118E+002	
4.32297733E-001	-1.18955975E+002	
4.53011038E-001	-1.18971707E+002	
4.73724343E-001	-1.18950956E+002	
4.94437649E-001	-1.18912669E+002	
5.15150954E-001	-1.18939257E+002	
5.35864259E-001	-1.18906015E+002	
5.56577565E-001	-1.18853494E+002	
5.77290870E-001	-1.18879383E+002	
5.98004175E-001	-1.18913462E+002	
6.18717481E-001	-1.18870457E+002	
6.39430786E-001	-1.18847491E+002	
6.60144091E-001	-1.18873126E+002	
6.80857396E-001	-1.18911861E+002	
7.01570702E-001	-1.18947969E+002	
7.22284007E-001	-1.18975258E+002	
7.42997312E-001	-1.18975380E+002	
7.63710618E-001	-1.18950307E+002	
7.84423923E-001	-1.18942542E+002	
8.05137228E-001	-1.18938768E+002	
8.25850534E-001	-1.18975115E+002	
8.46563839E-001	-1.18977122E+002	
8.67277144E-001	-1.19015178E+002	
8.87990450E-001	-1.19041390E+002	
9.08703755E-001	-1.19018524E+002	
9.29417060E-001	-1.18992739E+002	
9.50130366E-001	-1.18999452E+002	
9.70843671E-001	-1.18999771E+002	
9.91556976E-001	-1.19061953E+002	
1.01227028E+000	-1.19056612E+002	
1.03298359E+000	-1.19092918E+002	
1.05369689E+000	-1.19169162E+002	
1.07441020E+000	-1.19159822E+002	
1.09512350E+000	-1.19109687E+002	
1.11583681E+000	-1.19081822E+002	
1.13655011E+000	-1.19123602E+002	
1.15726342E+000	-1.19120022E+002	
1.17797672E+000	-1.19138560E+002	
1.19869003E+000	-1.19155267E+002	
1.21940333E+000	-1.19168825E+002	
1.24011664E+000	-1.19171230E+002	
1.26082995E+000	-1.19130227E+002	
1.28154325E+000	-1.19161084E+002	
1.30225656E+000	-1.19193024E+002	
1.32296986E+000	-1.19180819E+002	
1.34368317E+000	-1.19246458E+002	
1.36439647E+000	-1.19281089E+002	
1.38510978E+000	-1.19308619E+002	
1.40582308E+000	-1.19353618E+002	
1.42653639E+000	-1.19349983E+002	
1.44724969E+000	-1.19308371E+002	
1.46796300E+000	-1.19317559E+002	
1.48867630E+000	-1.19317393E+002	
1.50938961E+000	-1.19309238E+002	
1.53010291E+000	-1.19277726E+002	
1.55081622E+000	-1.19213333E+002	
1.57152953E+000	-1.19154800E+002	
