Acquired on 8/13/2021 at 12:27:10
Calibrated on 8/13/2021 at 11:06:07
Device Descriptor:  [none]
Scan Range (nm):  1539.624  --  1560.517
Measurement Type:  Reflection
Group Index:  1.500
Gain:  24 dB
Domain:  Time
Spatial Resolution (mm):  50.000000
Frequency domain window was applied to measurement data.
Number of Data Points (in this file):  16384
NOTE: Data stored in this file is decimated by a factor of 64.

Time (ns)	Amplitude (dB)	
-1.00072081E+001	-1.20706016E+002	
-9.98649484E+000	-1.20366666E+002	
-9.96578154E+000	-1.20014181E+002	
-9.94506823E+000	-1.19748462E+002	
-9.92435493E+000	-1.19513293E+002	
-9.90364162E+000	-1.19274317E+002	
-9.88292832E+000	-1.19058572E+002	
-9.86221501E+000	-1.18844344E+002	
-9.84150171E+000	-1.18645688E+002	
-9.82078840E+000	-1.18458180E+002	
-9.80007509E+000	-1.18257770E+002	
-9.77936179E+000	-1.18056917E+002	
-9.75864848E+000	-1.17997854E+002	
-9.73793518E+000	-1.18003494E+002	
-9.71722187E+000	-1.17999326E+002	
-9.69650857E+000	-1.18000925E+002	
-9.67579526E+000	-1.18061492E+002	
-9.65508196E+000	-1.18045031E+002	
-9.63436865E+000	-1.17983702E+002	
-9.61365535E+000	-1.17980284E+002	
-9.59294204E+000	-1.18007849E+002	
-9.57222874E+000	-1.18032583E+002	
-9.55151543E+000	-1.18048046E+002	
-9.53080213E+000	-1.18038594E+002	
-9.51008882E+000	-1.18069081E+002	
-9.48937552E+000	-1.18095013E+002	
-9.46866221E+000	-1.18086678E+002	
-9.44794890E+000	-1.18058069E+002	
-9.42723560E+000	-1.18012994E+002	
-9.40652229E+000	-1.18003590E+002	
-9.38580899E+000	-1.17977955E+002	
-9.36509568E+000	-1.17971016E+002	
-9.34438238E+000	-1.17932731E+002	
-9.32366907E+000	-1.17909298E+002	
-9.30295577E+000	-1.17905265E+002	
-9.28224246E+000	-1.17923750E+002	
-9.26152916E+000	-1.17874227E+002	
-9.24081585E+000	-1.17825609E+002	
-9.22010255E+000	-1.17817623E+002	
-9.19938924E+000	-1.17854693E+002	
-9.17867594E+000	-1.17839643E+002	
-9.15796263E+000	-1.17839882E+002	
-9.13724932E+000	-1.17905462E+002	
-9.11653602E+000	-1.17914088E+002	
-9.09582271E+000	-1.17868771E+002	
-9.07510941E+000	-1.17871485E+002	
-9.05439610E+000	-1.17874332E+002	
-9.03368280E+000	-1.17754284E+002	
-9.01296949E+000	-1.17743985E+002	
-8.99225619E+000	-1.17747811E+002	
-8.97154288E+000	-1.17805102E+002	
-8.95082958E+000	-1.17826332E+002	
-8.93011627E+000	-1.17856924E+002	
-8.90940297E+000	-1.17883802E+002	
-8.88868966E+000	-1.17910652E+002	
-8.86797636E+000	-1.17904744E+002	
-8.84726305E+000	-1.17922746E+002	
-8.82654974E+000	-1.17912822E+002	
-8.80583644E+000	-1.17928016E+002	
-8.78512313E+000	-1.17932549E+002	
-8.76440983E+000	-1.17952602E+002	
-8.74369652E+000	-1.18009197E+002	
-8.72298322E+000	-1.18025549E+002	
-8.70226991E+000	-1.17956233E+002	
-8.68155661E+000	-1.17922404E+002	
-8.66084330E+000	-1.17957780E+002	
-8.64013000E+000	-1.17930580E+002	
-8.61941669E+000	-1.17887767E+002	
-8.59870339E+000	-1.17929548E+002	
-8.57799008E+000	-1.17933172E+002	
-8.55727678E+000	-1.17892410E+002	
-8.53656347E+000	-1.18009913E+002	
-8.51585017E+000	-1.18032542E+002	
-8.49513686E+000	-1.18038622E+002	
-8.47442355E+000	-1.18025071E+002	
-8.45371025E+000	-1.18050405E+002	
-8.43299694E+000	-1.18084800E+002	
-8.41228364E+000	-1.18047934E+002	
-8.39157033E+000	-1.18022566E+002	
-8.37085703E+000	-1.18070055E+002	
-8.35014372E+000	-1.18083601E+002	
-8.32943042E+000	-1.18103800E+002	
-8.30871711E+000	-1.18059830E+002	
-8.28800381E+000	-1.18093857E+002	
-8.26729050E+000	-1.18080780E+002	
-8.24657720E+000	-1.18078714E+002	
-8.22586389E+000	-1.18053477E+002	
-8.20515059E+000	-1.18097652E+002	
-8.18443728E+000	-1.18094488E+002	
-8.16372397E+000	-1.18074797E+002	
-8.14301067E+000	-1.18025785E+002	
-8.12229736E+000	-1.18043323E+002	
-8.10158406E+000	-1.18041584E+002	
-8.08087075E+000	-1.18033351E+002	
-8.06015745E+000	-1.18011727E+002	
-8.03944414E+000	-1.17960465E+002	
-8.01873084E+000	-1.17972357E+002	
-7.99801753E+000	-1.17952453E+002	
-7.97730423E+000	-1.17946607E+002	
-7.95659092E+000	-1.17918100E+002	
-7.93587762E+000	-1.17934095E+002	
-7.91516431E+000	-1.17967238E+002	
-7.89445101E+000	-1.17962775E+002	
-7.87373770E+000	-1.17940944E+002	
-7.85302439E+000	-1.17937454E+002	
-7.83231109E+000	-1.17916247E+002	
-7.81159778E+000	-1.17969703E+002	
-7.79088448E+000	-1.17996890E+002	
-7.77017117E+000	-1.18013472E+002	
-7.74945787E+000	-1.18027767E+002	
-7.72874456E+000	-1.18044012E+002	
-7.70803126E+000	-1.18005141E+002	
-7.68731795E+000	-1.18038392E+002	
-7.66660465E+000	-1.18036439E+002	
-7.64589134E+000	-1.18031198E+002	
-7.62517804E+000	-1.18009020E+002	
-7.60446473E+000	-1.17938746E+002	
-7.58375143E+000	-1.17956986E+002	
-7.56303812E+000	-1.17989992E+002	
-7.54232482E+000	-1.18053800E+002	
-7.52161151E+000	-1.18047596E+002	
-7.50089820E+000	-1.18071092E+002	
-7.48018490E+000	-1.18040641E+002	
-7.45947159E+000	-1.18081533E+002	
-7.43875829E+000	-1.18006846E+002	
-7.41804498E+000	-1.17920895E+002	
-7.39733168E+000	-1.17972389E+002	
-7.37661837E+000	-1.17984276E+002	
-7.35590507E+000	-1.17988738E+002	
-7.33519176E+000	-1.18009665E+002	
-7.31447846E+000	-1.18028763E+002	
-7.29376515E+000	-1.18001382E+002	
-7.27305185E+000	-1.17968514E+002	
-7.25233854E+000	-1.17998260E+002	
-7.23162524E+000	-1.18013257E+002	
-7.21091193E+000	-1.18010582E+002	
-7.19019862E+000	-1.18010060E+002	
-7.16948532E+000	-1.18056000E+002	
-7.14877201E+000	-1.18127526E+002	
-7.12805871E+000	-1.18186834E+002	
-7.10734540E+000	-1.18263188E+002	
-7.08663210E+000	-1.18299568E+002	
-7.06591879E+000	-1.18279269E+002	
-7.04520549E+000	-1.18262514E+002	
-7.02449218E+000	-1.18232432E+002	
-7.00377888E+000	-1.18190580E+002	
-6.98306557E+000	-1.18235268E+002	
-6.96235227E+000	-1.18195952E+002	
-6.94163896E+000	-1.18226127E+002	
-6.92092566E+000	-1.18300990E+002	
-6.90021235E+000	-1.18293993E+002	
-6.87949904E+000	-1.18261945E+002	
-6.85878574E+000	-1.18245627E+002	
-6.83807243E+000	-1.18269692E+002	
-6.81735913E+000	-1.18283162E+002	
-6.79664582E+000	-1.18237223E+002	
-6.77593252E+000	-1.18282551E+002	
-6.75521921E+000	-1.18237266E+002	
-6.73450591E+000	-1.18226141E+002	
-6.71379260E+000	-1.18199120E+002	
-6.69307930E+000	-1.18197082E+002	
-6.67236599E+000	-1.18150824E+002	
-6.65165269E+000	-1.18138874E+002	
-6.63093938E+000	-1.18157009E+002	
-6.61022608E+000	-1.18178914E+002	
-6.58951277E+000	-1.18173109E+002	
-6.56879947E+000	-1.18157280E+002	
-6.54808616E+000	-1.18144964E+002	
-6.52737285E+000	-1.18123194E+002	
-6.50665955E+000	-1.18150058E+002	
-6.48594624E+000	-1.18189755E+002	
-6.46523294E+000	-1.18224238E+002	
-6.44451963E+000	-1.18161714E+002	
-6.42380633E+000	-1.18115004E+002	
-6.40309302E+000	-1.18107988E+002	
-6.38237972E+000	-1.18078724E+002	
-6.36166641E+000	-1.18076112E+002	
-6.34095311E+000	-1.18075656E+002	
-6.32023980E+000	-1.18064887E+002	
-6.29952650E+000	-1.18074374E+002	
-6.27881319E+000	-1.18048975E+002	
-6.25809989E+000	-1.18063958E+002	
-6.23738658E+000	-1.18052060E+002	
-6.21667327E+000	-1.18034010E+002	
-6.19595997E+000	-1.18045787E+002	
-6.17524666E+000	-1.18044757E+002	
-6.15453336E+000	-1.18037615E+002	
-6.13382005E+000	-1.18011159E+002	
-6.11310675E+000	-1.18013760E+002	
-6.09239344E+000	-1.18006042E+002	
-6.07168014E+000	-1.17958231E+002	
-6.05096683E+000	-1.18027865E+002	
-6.03025353E+000	-1.18044053E+002	
-6.00954022E+000	-1.18037959E+002	
-5.98882692E+000	-1.17995973E+002	
-5.96811361E+000	-1.18003426E+002	
-5.94740031E+000	-1.18054991E+002	
-5.92668700E+000	-1.18096822E+002	
-5.90597369E+000	-1.18115784E+002	
-5.88526039E+000	-1.18166004E+002	
-5.86454708E+000	-1.18196769E+002	
-5.84383378E+000	-1.18166509E+002	
-5.82312047E+000	-1.18194835E+002	
-5.80240717E+000	-1.18175982E+002	
-5.78169386E+000	-1.18189419E+002	
-5.76098056E+000	-1.18183971E+002	
-5.74026725E+000	-1.18182440E+002	
-5.71955395E+000	-1.18230171E+002	
-5.69884064E+000	-1.18233357E+002	
-5.67812734E+000	-1.18256975E+002	
-5.65741403E+000	-1.18252956E+002	
-5.63670073E+000	-1.18270756E+002	
-5.61598742E+000	-1.18251741E+002	
-5.59527412E+000	-1.18214715E+002	
-5.57456081E+000	-1.18282268E+002	
-5.55384750E+000	-1.18183970E+002	
-5.53313420E+000	-1.18109360E+002	
-5.51242089E+000	-1.18113901E+002	
-5.49170759E+000	-1.18100872E+002	
-5.47099428E+000	-1.18067599E+002	
-5.45028098E+000	-1.18120814E+002	
-5.42956767E+000	-1.18161809E+002	
-5.40885437E+000	-1.18155258E+002	
-5.38814106E+000	-1.18145945E+002	
-5.36742776E+000	-1.18124151E+002	
-5.34671445E+000	-1.18155028E+002	
-5.32600115E+000	-1.18146033E+002	
-5.30528784E+000	-1.18155132E+002	
-5.28457454E+000	-1.18127727E+002	
-5.26386123E+000	-1.18120176E+002	
-5.24314792E+000	-1.18067259E+002	
-5.22243462E+000	-1.18034823E+002	
-5.20172131E+000	-1.18036984E+002	
-5.18100801E+000	-1.17988712E+002	
-5.16029470E+000	-1.17977281E+002	
-5.13958140E+000	-1.17934419E+002	
-5.11886809E+000	-1.17913095E+002	
-5.09815479E+000	-1.17923796E+002	
-5.07744148E+000	-1.17880948E+002	
-5.05672818E+000	-1.17956559E+002	
-5.03601487E+000	-1.17980686E+002	
-5.01530157E+000	-1.18016469E+002	
-4.99458826E+000	-1.18029269E+002	
-4.97387496E+000	-1.17988747E+002	
-4.95316165E+000	-1.17980981E+002	
-4.93244834E+000	-1.17939289E+002	
-4.91173504E+000	-1.17922601E+002	
-4.89102173E+000	-1.17913813E+002	
-4.87030843E+000	-1.17939811E+002	
-4.84959512E+000	-1.17918442E+002	
-4.82888182E+000	-1.17883552E+002	
-4.80816851E+000	-1.17873318E+002	
-4.78745521E+000	-1.17886048E+002	
-4.76674190E+000	-1.17916058E+002	
-4.74602860E+000	-1.17933925E+002	
-4.72531529E+000	-1.17975376E+002	
-4.70460199E+000	-1.17963032E+002	
-4.68388868E+000	-1.18011978E+002	
-4.66317538E+000	-1.18006003E+002	
-4.64246207E+000	-1.18043169E+002	
-4.62174877E+000	-1.18078098E+002	
-4.60103546E+000	-1.18114203E+002	
-4.58032215E+000	-1.18140734E+002	
-4.55960885E+000	-1.18111397E+002	
-4.53889554E+000	-1.18134904E+002	
-4.51818224E+000	-1.18068751E+002	
-4.49746893E+000	-1.18020412E+002	
-4.47675563E+000	-1.18071548E+002	
-4.45604232E+000	-1.18067731E+002	
-4.43532902E+000	-1.18063493E+002	
-4.41461571E+000	-1.18042659E+002	
-4.39390241E+000	-1.18061588E+002	
-4.37318910E+000	-1.18073422E+002	
-4.35247580E+000	-1.18053937E+002	
-4.33176249E+000	-1.18043680E+002	
-4.31104919E+000	-1.18040124E+002	
-4.29033588E+000	-1.18038827E+002	
-4.26962257E+000	-1.18032251E+002	
-4.24890927E+000	-1.18079755E+002	
-4.22819596E+000	-1.18098141E+002	
-4.20748266E+000	-1.18143323E+002	
-4.18676935E+000	-1.18095679E+002	
-4.16605605E+000	-1.18105634E+002	
-4.14534274E+000	-1.18121420E+002	
-4.12462944E+000	-1.18083316E+002	
-4.10391613E+000	-1.18077981E+002	
-4.08320283E+000	-1.18065286E+002	
-4.06248952E+000	-1.18057646E+002	
-4.04177622E+000	-1.18022014E+002	
-4.02106291E+000	-1.18058372E+002	
-4.00034961E+000	-1.18063839E+002	
-3.97963630E+000	-1.18024648E+002	
-3.95892299E+000	-1.18028946E+002	
-3.93820969E+000	-1.18008962E+002	
-3.91749638E+000	-1.18032399E+002	
-3.89678308E+000	-1.17996644E+002	
-3.87606977E+000	-1.17916442E+002	
-3.85535647E+000	-1.17919305E+002	
-3.83464316E+000	-1.17917647E+002	
-3.81392986E+000	-1.17912830E+002	
-3.79321655E+000	-1.17940988E+002	
-3.77250325E+000	-1.17876135E+002	
-3.75178994E+000	-1.17872975E+002	
-3.73107664E+000	-1.17882315E+002	
-3.71036333E+000	-1.17816145E+002	
-3.68965003E+000	-1.17844695E+002	
-3.66893672E+000	-1.17894493E+002	
-3.64822342E+000	-1.17859540E+002	
-3.62751011E+000	-1.17873419E+002	
-3.60679680E+000	-1.17868937E+002	
-3.58608350E+000	-1.17876208E+002	
-3.56537019E+000	-1.17905364E+002	
-3.54465689E+000	-1.17921816E+002	
-3.52394358E+000	-1.17951616E+002	
-3.50323028E+000	-1.17989032E+002	
-3.48251697E+000	-1.18018622E+002	
-3.46180367E+000	-1.18041931E+002	
-3.44109036E+000	-1.18057583E+002	
-3.42037706E+000	-1.18087593E+002	
-3.39966375E+000	-1.18123369E+002	
-3.37895045E+000	-1.18174993E+002	
-3.35823714E+000	-1.18171407E+002	
-3.33752384E+000	-1.18171560E+002	
-3.31681053E+000	-1.18177495E+002	
-3.29609722E+000	-1.18151546E+002	
-3.27538392E+000	-1.18166531E+002	
-3.25467061E+000	-1.18168426E+002	
-3.23395731E+000	-1.18151177E+002	
-3.21324400E+000	-1.18176176E+002	
-3.19253070E+000	-1.18170755E+002	
-3.17181739E+000	-1.18141703E+002	
-3.15110409E+000	-1.18114045E+002	
-3.13039078E+000	-1.18099210E+002	
-3.10967748E+000	-1.18139682E+002	
-3.08896417E+000	-1.18121846E+002	
-3.06825087E+000	-1.18103883E+002	
-3.04753756E+000	-1.18111412E+002	
-3.02682426E+000	-1.18074915E+002	
-3.00611095E+000	-1.18008689E+002	
-2.98539764E+000	-1.18056809E+002	
-2.96468434E+000	-1.18023243E+002	
-2.94397103E+000	-1.17996777E+002	
-2.92325773E+000	-1.17963114E+002	
-2.90254442E+000	-1.17966052E+002	
-2.88183112E+000	-1.17978445E+002	
-2.86111781E+000	-1.18022202E+002	
-2.84040451E+000	-1.18068731E+002	
-2.81969120E+000	-1.18109145E+002	
-2.79897790E+000	-1.18170771E+002	
-2.77826459E+000	-1.18130538E+002	
-2.75755129E+000	-1.18110263E+002	
-2.73683798E+000	-1.18125050E+002	
-2.71612468E+000	-1.18075330E+002	
-2.69541137E+000	-1.18055087E+002	
-2.67469807E+000	-1.18116158E+002	
-2.65398476E+000	-1.18142647E+002	
-2.63327145E+000	-1.18139637E+002	
-2.61255815E+000	-1.18078689E+002	
-2.59184484E+000	-1.18078342E+002	
-2.57113154E+000	-1.18074355E+002	
-2.55041823E+000	-1.18081678E+002	
-2.52970493E+000	-1.18134549E+002	
-2.50899162E+000	-1.18203719E+002	
-2.48827832E+000	-1.18181338E+002	
-2.46756501E+000	-1.18179940E+002	
-2.44685171E+000	-1.18184943E+002	
-2.42613840E+000	-1.18203618E+002	
-2.40542510E+000	-1.18208621E+002	
-2.38471179E+000	-1.18188251E+002	
-2.36399849E+000	-1.18164042E+002	
-2.34328518E+000	-1.18109013E+002	
-2.32257187E+000	-1.18054869E+002	
-2.30185857E+000	-1.17989730E+002	
-2.28114526E+000	-1.18016354E+002	
-2.26043196E+000	-1.18093266E+002	
-2.23971865E+000	-1.18083613E+002	
-2.21900535E+000	-1.18141389E+002	
-2.19829204E+000	-1.18171304E+002	
-2.17757874E+000	-1.18130244E+002	
-2.15686543E+000	-1.18115162E+002	
-2.13615213E+000	-1.18169376E+002	
-2.11543882E+000	-1.18178479E+002	
-2.09472552E+000	-1.18193941E+002	
-2.07401221E+000	-1.18163619E+002	
-2.05329891E+000	-1.18111416E+002	
-2.03258560E+000	-1.18122676E+002	
-2.01187229E+000	-1.18118810E+002	
-1.99115899E+000	-1.18122340E+002	
-1.97044568E+000	-1.18053852E+002	
-1.94973238E+000	-1.18059408E+002	
-1.92901907E+000	-1.18038522E+002	
-1.90830577E+000	-1.17993392E+002	
-1.88759246E+000	-1.17989805E+002	
-1.86687916E+000	-1.18027268E+002	
-1.84616585E+000	-1.18001421E+002	
-1.82545255E+000	-1.18082604E+002	
-1.80473924E+000	-1.18088581E+002	
-1.78402594E+000	-1.18117399E+002	
-1.76331263E+000	-1.18114146E+002	
-1.74259933E+000	-1.18062742E+002	
-1.72188602E+000	-1.18058537E+002	
-1.70117272E+000	-1.18123588E+002	
-1.68045941E+000	-1.18144959E+002	
-1.65974610E+000	-1.18102759E+002	
-1.63903280E+000	-1.18068779E+002	
-1.61831949E+000	-1.18130724E+002	
-1.59760619E+000	-1.18144042E+002	
-1.57689288E+000	-1.18157206E+002	
-1.55617958E+000	-1.18214497E+002	
-1.53546627E+000	-1.18197378E+002	
-1.51475297E+000	-1.18201485E+002	
-1.49403966E+000	-1.18179020E+002	
-1.47332636E+000	-1.18228814E+002	
-1.45261305E+000	-1.18203175E+002	
-1.43189975E+000	-1.18210507E+002	
-1.41118644E+000	-1.18207312E+002	
-1.39047314E+000	-1.18234850E+002	
-1.36975983E+000	-1.18195721E+002	
-1.34904652E+000	-1.18197114E+002	
-1.32833322E+000	-1.18147282E+002	
-1.30761991E+000	-1.18095359E+002	
-1.28690661E+000	-1.18100096E+002	
-1.26619330E+000	-1.18085742E+002	
-1.24548000E+000	-1.18136110E+002	
-1.22476669E+000	-1.18164405E+002	
-1.20405339E+000	-1.18066634E+002	
-1.18334008E+000	-1.18059724E+002	
-1.16262678E+000	-1.18128650E+002	
-1.14191347E+000	-1.18152739E+002	
-1.12120017E+000	-1.18138114E+002	
-1.10048686E+000	-1.18109245E+002	
-1.07977356E+000	-1.18118246E+002	
-1.05906025E+000	-1.18157697E+002	
-1.03834694E+000	-1.18138319E+002	
-1.01763364E+000	-1.18071399E+002	
-9.96920334E-001	-1.17979375E+002	
-9.76207029E-001	-1.17938668E+002	
-9.55493724E-001	-1.17952411E+002	
-9.34780418E-001	-1.17963150E+002	
-9.14067113E-001	-1.18004343E+002	
-8.93353808E-001	-1.17983729E+002	
-8.72640502E-001	-1.17963496E+002	
-8.51927197E-001	-1.17993262E+002	
-8.31213892E-001	-1.18025216E+002	
-8.10500586E-001	-1.18087788E+002	
-7.89787281E-001	-1.18105542E+002	
-7.69073976E-001	-1.18122753E+002	
-7.48360671E-001	-1.18110832E+002	
-7.27647365E-001	-1.18100408E+002	
-7.06934060E-001	-1.18130016E+002	
-6.86220755E-001	-1.18156817E+002	
-6.65507449E-001	-1.18178040E+002	
-6.44794144E-001	-1.18173944E+002	
-6.24080839E-001	-1.18141059E+002	
-6.03367533E-001	-1.18138890E+002	
-5.82654228E-001	-1.18112891E+002	
-5.61940923E-001	-1.18061635E+002	
-5.41227617E-001	-1.18022422E+002	
-5.20514312E-001	-1.18051877E+002	
-4.99801007E-001	-1.18157239E+002	
-4.79087701E-001	-1.18232465E+002	
-4.58374396E-001	-1.18265033E+002	
-4.37661091E-001	-1.18231688E+002	
-4.16947785E-001	-1.18211743E+002	
-3.96234480E-001	-1.18224405E+002	
-3.75521175E-001	-1.18232531E+002	
-3.54807869E-001	-1.18244294E+002	
-3.34094564E-001	-1.18249463E+002	
-3.13381259E-001	-1.18259427E+002	
-2.92667954E-001	-1.18207078E+002	
-2.71954648E-001	-1.18044440E+002	
-2.51241343E-001	-8.59726962E+001	
-2.30528038E-001	-8.56329337E+001	
-2.09814732E-001	-8.56329014E+001	
-1.89101427E-001	-8.56329013E+001	
-1.68388122E-001	-8.56328943E+001	
-1.47674816E-001	-8.56328745E+001	
-1.26961511E-001	-8.56328058E+001	
-1.06248206E-001	-8.56327626E+001	
-8.55349003E-002	-8.56327855E+001	
-6.48215950E-002	-8.56328159E+001	
-4.41082897E-002	-8.56328753E+001	
-2.33949844E-002	-8.56329022E+001	
-2.68167905E-003	-8.56329234E+001	
1.80316263E-002	-8.56329166E+001	
3.87449316E-002	-8.56329273E+001	
5.94582369E-002	-8.56329708E+001	
8.01715422E-002	-8.56329956E+001	
1.00884848E-001	-8.56330110E+001	
1.21598153E-001	-8.56330538E+001	
1.42311458E-001	-8.56330628E+001	
1.63024763E-001	-8.56330701E+001	
1.83738069E-001	-8.56330574E+001	
2.04451374E-001	-8.56330632E+001	
2.25164679E-001	-8.56331311E+001	
2.45877985E-001	-9.21337193E+001	
2.66591290E-001	-1.18480142E+002	
2.87304595E-001	-1.18583076E+002	
3.08017901E-001	-1.18615147E+002	
3.28731206E-001	-1.18576689E+002	
3.49444511E-001	-1.18596557E+002	
3.70157817E-001	-1.18737813E+002	
3.90871122E-001	-1.18849953E+002	
4.11584427E-001	-1.18869997E+002	
4.32297733E-001	-1.18898498E+002	
4.53011038E-001	-1.18908186E+002	
4.73724343E-001	-1.18895551E+002	
4.94437649E-001	-1.18852116E+002	
5.15150954E-001	-1.18875894E+002	
5.35864259E-001	-1.18841512E+002	
5.56577565E-001	-1.18792986E+002	
5.77290870E-001	-1.18825255E+002	
5.98004175E-001	-1.18864505E+002	
6.18717481E-001	-1.18820924E+002	
6.39430786E-001	-1.18798278E+002	
6.60144091E-001	-1.18831113E+002	
6.80857396E-001	-1.18873714E+002	
7.01570702E-001	-1.18906616E+002	
7.22284007E-001	-1.18922249E+002	
7.42997312E-001	-1.18922842E+002	
7.63710618E-001	-1.18901591E+002	
7.84423923E-001	-1.18892497E+002	
8.05137228E-001	-1.18890687E+002	
8.25850534E-001	-1.18921813E+002	
8.46563839E-001	-1.18921826E+002	
8.67277144E-001	-1.18963973E+002	
8.87990450E-001	-1.18994601E+002	
9.08703755E-001	-1.18975186E+002	
9.29417060E-001	-1.18946355E+002	
9.50130366E-001	-1.18950308E+002	
9.70843671E-001	-1.18948910E+002	
9.91556976E-001	-1.19020993E+002	
1.01227028E+000	-1.19016123E+002	
1.03298359E+000	-1.19053877E+002	
1.05369689E+000	-1.19133868E+002	
1.07441020E+000	-1.19127244E+002	
1.09512350E+000	-1.19075674E+002	
1.11583681E+000	-1.19048590E+002	
1.13655011E+000	-1.19091746E+002	
1.15726342E+000	-1.19090143E+002	
1.17797672E+000	-1.19106904E+002	
1.19869003E+000	-1.19117440E+002	
1.21940333E+000	-1.19139473E+002	
1.24011664E+000	-1.19143753E+002	
1.26082995E+000	-1.19107393E+002	
1.28154325E+000	-1.19132549E+002	
1.30225656E+000	-1.19161065E+002	
1.32296986E+000	-1.19141814E+002	
1.34368317E+000	-1.19209724E+002	
1.36439647E+000	-1.19241079E+002	
1.38510978E+000	-1.19274583E+002	
1.40582308E+000	-1.19314198E+002	
1.42653639E+000	-1.19310855E+002	
1.44724969E+000	-1.19274651E+002	
1.46796300E+000	-1.19284666E+002	
1.48867630E+000	-1.19276312E+002	
1.50938961E+000	-1.19271979E+002	
1.53010291E+000	-1.19240274E+002	
1.55081622E+000	-1.19174453E+002	
1.57152953E+000	-1.19109686E+002	
