Acquired on 8/13/2021 at 11:40:12
Calibrated on 8/13/2021 at 11:06:07
Device Descriptor:  [none]
Scan Range (nm):  1539.624  --  1560.517
Measurement Type:  Reflection
Group Index:  1.500
Gain:  24 dB
Domain:  Time
Spatial Resolution (mm):  50.000000
Frequency domain window was applied to measurement data.
Number of Data Points (in this file):  16384
NOTE: Data stored in this file is decimated by a factor of 64.

Time (ns)	Amplitude (dB)	
-1.00072081E+001	-1.20575669E+002	
-9.98649484E+000	-1.20241945E+002	
-9.96578154E+000	-1.19881872E+002	
-9.94506823E+000	-1.19618953E+002	
-9.92435493E+000	-1.19382689E+002	
-9.90364162E+000	-1.19139553E+002	
-9.88292832E+000	-1.18925976E+002	
-9.86221501E+000	-1.18710724E+002	
-9.84150171E+000	-1.18508931E+002	
-9.82078840E+000	-1.18326614E+002	
-9.80007509E+000	-1.18127296E+002	
-9.77936179E+000	-1.17926561E+002	
-9.75864848E+000	-1.17861308E+002	
-9.73793518E+000	-1.17865477E+002	
-9.71722187E+000	-1.17864896E+002	
-9.69650857E+000	-1.17869249E+002	
-9.67579526E+000	-1.17925369E+002	
-9.65508196E+000	-1.17908376E+002	
-9.63436865E+000	-1.17856747E+002	
-9.61365535E+000	-1.17856792E+002	
-9.59294204E+000	-1.17885287E+002	
-9.57222874E+000	-1.17906943E+002	
-9.55151543E+000	-1.17919329E+002	
-9.53080213E+000	-1.17912060E+002	
-9.51008882E+000	-1.17941012E+002	
-9.48937552E+000	-1.17962163E+002	
-9.46866221E+000	-1.17963477E+002	
-9.44794890E+000	-1.17933349E+002	
-9.42723560E+000	-1.17892887E+002	
-9.40652229E+000	-1.17890165E+002	
-9.38580899E+000	-1.17864224E+002	
-9.36509568E+000	-1.17854888E+002	
-9.34438238E+000	-1.17820677E+002	
-9.32366907E+000	-1.17797384E+002	
-9.30295577E+000	-1.17794742E+002	
-9.28224246E+000	-1.17809221E+002	
-9.26152916E+000	-1.17768515E+002	
-9.24081585E+000	-1.17718069E+002	
-9.22010255E+000	-1.17707747E+002	
-9.19938924E+000	-1.17742763E+002	
-9.17867594E+000	-1.17731570E+002	
-9.15796263E+000	-1.17731832E+002	
-9.13724932E+000	-1.17788618E+002	
-9.11653602E+000	-1.17794775E+002	
-9.09582271E+000	-1.17751865E+002	
-9.07510941E+000	-1.17764737E+002	
-9.05439610E+000	-1.17766585E+002	
-9.03368280E+000	-1.17640297E+002	
-9.01296949E+000	-1.17628926E+002	
-8.99225619E+000	-1.17641075E+002	
-8.97154288E+000	-1.17690559E+002	
-8.95082958E+000	-1.17705732E+002	
-8.93011627E+000	-1.17728877E+002	
-8.90940297E+000	-1.17750279E+002	
-8.88868966E+000	-1.17777039E+002	
-8.86797636E+000	-1.17772526E+002	
-8.84726305E+000	-1.17788171E+002	
-8.82654974E+000	-1.17776281E+002	
-8.80583644E+000	-1.17787111E+002	
-8.78512313E+000	-1.17790868E+002	
-8.76440983E+000	-1.17804795E+002	
-8.74369652E+000	-1.17865529E+002	
-8.72298322E+000	-1.17882125E+002	
-8.70226991E+000	-1.17811475E+002	
-8.68155661E+000	-1.17777203E+002	
-8.66084330E+000	-1.17814880E+002	
-8.64013000E+000	-1.17790028E+002	
-8.61941669E+000	-1.17753274E+002	
-8.59870339E+000	-1.17795296E+002	
-8.57799008E+000	-1.17790488E+002	
-8.55727678E+000	-1.17752996E+002	
-8.53656347E+000	-1.17874262E+002	
-8.51585017E+000	-1.17895213E+002	
-8.49513686E+000	-1.17894787E+002	
-8.47442355E+000	-1.17880972E+002	
-8.45371025E+000	-1.17914077E+002	
-8.43299694E+000	-1.17958262E+002	
-8.41228364E+000	-1.17919466E+002	
-8.39157033E+000	-1.17892175E+002	
-8.37085703E+000	-1.17936961E+002	
-8.35014372E+000	-1.17954218E+002	
-8.32943042E+000	-1.17970249E+002	
-8.30871711E+000	-1.17927740E+002	
-8.28800381E+000	-1.17968922E+002	
-8.26729050E+000	-1.17951615E+002	
-8.24657720E+000	-1.17941722E+002	
-8.22586389E+000	-1.17919735E+002	
-8.20515059E+000	-1.17967902E+002	
-8.18443728E+000	-1.17965106E+002	
-8.16372397E+000	-1.17948493E+002	
-8.14301067E+000	-1.17893473E+002	
-8.12229736E+000	-1.17904205E+002	
-8.10158406E+000	-1.17896859E+002	
-8.08087075E+000	-1.17889916E+002	
-8.06015745E+000	-1.17867174E+002	
-8.03944414E+000	-1.17814926E+002	
-8.01873084E+000	-1.17830183E+002	
-7.99801753E+000	-1.17813519E+002	
-7.97730423E+000	-1.17807323E+002	
-7.95659092E+000	-1.17780101E+002	
-7.93587762E+000	-1.17788443E+002	
-7.91516431E+000	-1.17830622E+002	
-7.89445101E+000	-1.17832367E+002	
-7.87373770E+000	-1.17813950E+002	
-7.85302439E+000	-1.17810749E+002	
-7.83231109E+000	-1.17793886E+002	
-7.81159778E+000	-1.17852810E+002	
-7.79088448E+000	-1.17877632E+002	
-7.77017117E+000	-1.17903292E+002	
-7.74945787E+000	-1.17919915E+002	
-7.72874456E+000	-1.17930667E+002	
-7.70803126E+000	-1.17888487E+002	
-7.68731795E+000	-1.17920146E+002	
-7.66660465E+000	-1.17909434E+002	
-7.64589134E+000	-1.17913670E+002	
-7.62517804E+000	-1.17897339E+002	
-7.60446473E+000	-1.17833967E+002	
-7.58375143E+000	-1.17857070E+002	
-7.56303812E+000	-1.17890604E+002	
-7.54232482E+000	-1.17953205E+002	
-7.52161151E+000	-1.17940908E+002	
-7.50089820E+000	-1.17955852E+002	
-7.48018490E+000	-1.17928604E+002	
-7.45947159E+000	-1.17969646E+002	
-7.43875829E+000	-1.17899621E+002	
-7.41804498E+000	-1.17812788E+002	
-7.39733168E+000	-1.17862142E+002	
-7.37661837E+000	-1.17876564E+002	
-7.35590507E+000	-1.17880534E+002	
-7.33519176E+000	-1.17900989E+002	
-7.31447846E+000	-1.17914418E+002	
-7.29376515E+000	-1.17885883E+002	
-7.27305185E+000	-1.17852207E+002	
-7.25233854E+000	-1.17883400E+002	
-7.23162524E+000	-1.17901345E+002	
-7.21091193E+000	-1.17897875E+002	
-7.19019862E+000	-1.17901153E+002	
-7.16948532E+000	-1.17953222E+002	
-7.14877201E+000	-1.18026313E+002	
-7.12805871E+000	-1.18082307E+002	
-7.10734540E+000	-1.18158847E+002	
-7.08663210E+000	-1.18186881E+002	
-7.06591879E+000	-1.18164580E+002	
-7.04520549E+000	-1.18149712E+002	
-7.02449218E+000	-1.18127802E+002	
-7.00377888E+000	-1.18090841E+002	
-6.98306557E+000	-1.18131309E+002	
-6.96235227E+000	-1.18086910E+002	
-6.94163896E+000	-1.18111091E+002	
-6.92092566E+000	-1.18180947E+002	
-6.90021235E+000	-1.18168841E+002	
-6.87949904E+000	-1.18131645E+002	
-6.85878574E+000	-1.18114933E+002	
-6.83807243E+000	-1.18140497E+002	
-6.81735913E+000	-1.18154232E+002	
-6.79664582E+000	-1.18111522E+002	
-6.77593252E+000	-1.18155820E+002	
-6.75521921E+000	-1.18111357E+002	
-6.73450591E+000	-1.18096831E+002	
-6.71379260E+000	-1.18066724E+002	
-6.69307930E+000	-1.18065201E+002	
-6.67236599E+000	-1.18016314E+002	
-6.65165269E+000	-1.17991734E+002	
-6.63093938E+000	-1.18013882E+002	
-6.61022608E+000	-1.18036353E+002	
-6.58951277E+000	-1.18028211E+002	
-6.56879947E+000	-1.18019142E+002	
-6.54808616E+000	-1.18012508E+002	
-6.52737285E+000	-1.17991141E+002	
-6.50665955E+000	-1.18021075E+002	
-6.48594624E+000	-1.18066898E+002	
-6.46523294E+000	-1.18112605E+002	
-6.44451963E+000	-1.18053928E+002	
-6.42380633E+000	-1.18015813E+002	
-6.40309302E+000	-1.18021228E+002	
-6.38237972E+000	-1.17991060E+002	
-6.36166641E+000	-1.17990342E+002	
-6.34095311E+000	-1.17990447E+002	
-6.32023980E+000	-1.17978232E+002	
-6.29952650E+000	-1.17982735E+002	
-6.27881319E+000	-1.17953815E+002	
-6.25809989E+000	-1.17958787E+002	
-6.23738658E+000	-1.17951855E+002	
-6.21667327E+000	-1.17935796E+002	
-6.19595997E+000	-1.17944224E+002	
-6.17524666E+000	-1.17936437E+002	
-6.15453336E+000	-1.17939075E+002	
-6.13382005E+000	-1.17913986E+002	
-6.11310675E+000	-1.17910738E+002	
-6.09239344E+000	-1.17908751E+002	
-6.07168014E+000	-1.17864138E+002	
-6.05096683E+000	-1.17929805E+002	
-6.03025353E+000	-1.17943876E+002	
-6.00954022E+000	-1.17931648E+002	
-5.98882692E+000	-1.17878920E+002	
-5.96811361E+000	-1.17879470E+002	
-5.94740031E+000	-1.17927717E+002	
-5.92668700E+000	-1.17970586E+002	
-5.90597369E+000	-1.17978169E+002	
-5.88526039E+000	-1.18035160E+002	
-5.86454708E+000	-1.18061100E+002	
-5.84383378E+000	-1.18033089E+002	
-5.82312047E+000	-1.18062282E+002	
-5.80240717E+000	-1.18046819E+002	
-5.78169386E+000	-1.18062910E+002	
-5.76098056E+000	-1.18063937E+002	
-5.74026725E+000	-1.18072739E+002	
-5.71955395E+000	-1.18124417E+002	
-5.69884064E+000	-1.18128544E+002	
-5.67812734E+000	-1.18158877E+002	
-5.65741403E+000	-1.18152390E+002	
-5.63670073E+000	-1.18163510E+002	
-5.61598742E+000	-1.18145307E+002	
-5.59527412E+000	-1.18113931E+002	
-5.57456081E+000	-1.18183304E+002	
-5.55384750E+000	-1.18091154E+002	
-5.53313420E+000	-1.18026641E+002	
-5.51242089E+000	-1.18043435E+002	
-5.49170759E+000	-1.18042908E+002	
-5.47099428E+000	-1.18024947E+002	
-5.45028098E+000	-1.18077238E+002	
-5.42956767E+000	-1.18111912E+002	
-5.40885437E+000	-1.18100323E+002	
-5.38814106E+000	-1.18079912E+002	
-5.36742776E+000	-1.18056714E+002	
-5.34671445E+000	-1.18083504E+002	
-5.32600115E+000	-1.18073175E+002	
-5.30528784E+000	-1.18085316E+002	
-5.28457454E+000	-1.18048947E+002	
-5.26386123E+000	-1.18042643E+002	
-5.24314792E+000	-1.17979526E+002	
-5.22243462E+000	-1.17947299E+002	
-5.20172131E+000	-1.17953511E+002	
-5.18100801E+000	-1.17910812E+002	
-5.16029470E+000	-1.17903239E+002	
-5.13958140E+000	-1.17860680E+002	
-5.11886809E+000	-1.17836948E+002	
-5.09815479E+000	-1.17844659E+002	
-5.07744148E+000	-1.17803004E+002	
-5.05672818E+000	-1.17869661E+002	
-5.03601487E+000	-1.17880663E+002	
-5.01530157E+000	-1.17906492E+002	
-4.99458826E+000	-1.17916288E+002	
-4.97387496E+000	-1.17860482E+002	
-4.95316165E+000	-1.17856987E+002	
-4.93244834E+000	-1.17813615E+002	
-4.91173504E+000	-1.17792089E+002	
-4.89102173E+000	-1.17787460E+002	
-4.87030843E+000	-1.17821355E+002	
-4.84959512E+000	-1.17803793E+002	
-4.82888182E+000	-1.17762251E+002	
-4.80816851E+000	-1.17748030E+002	
-4.78745521E+000	-1.17767718E+002	
-4.76674190E+000	-1.17798066E+002	
-4.74602860E+000	-1.17823177E+002	
-4.72531529E+000	-1.17867229E+002	
-4.70460199E+000	-1.17850988E+002	
-4.68388868E+000	-1.17892746E+002	
-4.66317538E+000	-1.17888288E+002	
-4.64246207E+000	-1.17927323E+002	
-4.62174877E+000	-1.17964863E+002	
-4.60103546E+000	-1.18002410E+002	
-4.58032215E+000	-1.18026812E+002	
-4.55960885E+000	-1.17998516E+002	
-4.53889554E+000	-1.18030513E+002	
-4.51818224E+000	-1.17957212E+002	
-4.49746893E+000	-1.17908375E+002	
-4.47675563E+000	-1.17957981E+002	
-4.45604232E+000	-1.17942260E+002	
-4.43532902E+000	-1.17939154E+002	
-4.41461571E+000	-1.17931155E+002	
-4.39390241E+000	-1.17949877E+002	
-4.37318910E+000	-1.17955484E+002	
-4.35247580E+000	-1.17935960E+002	
-4.33176249E+000	-1.17932854E+002	
-4.31104919E+000	-1.17931772E+002	
-4.29033588E+000	-1.17929377E+002	
-4.26962257E+000	-1.17919746E+002	
-4.24890927E+000	-1.17961396E+002	
-4.22819596E+000	-1.17974884E+002	
-4.20748266E+000	-1.18021615E+002	
-4.18676935E+000	-1.17976817E+002	
-4.16605605E+000	-1.17987800E+002	
-4.14534274E+000	-1.18002691E+002	
-4.12462944E+000	-1.17969374E+002	
-4.10391613E+000	-1.17958204E+002	
-4.08320283E+000	-1.17949257E+002	
-4.06248952E+000	-1.17939842E+002	
-4.04177622E+000	-1.17901748E+002	
-4.02106291E+000	-1.17946136E+002	
-4.00034961E+000	-1.17954082E+002	
-3.97963630E+000	-1.17921005E+002	
-3.95892299E+000	-1.17930994E+002	
-3.93820969E+000	-1.17915419E+002	
-3.91749638E+000	-1.17935142E+002	
-3.89678308E+000	-1.17901234E+002	
-3.87606977E+000	-1.17825652E+002	
-3.85535647E+000	-1.17826269E+002	
-3.83464316E+000	-1.17815448E+002	
-3.81392986E+000	-1.17810078E+002	
-3.79321655E+000	-1.17836950E+002	
-3.77250325E+000	-1.17773324E+002	
-3.75178994E+000	-1.17773233E+002	
-3.73107664E+000	-1.17779934E+002	
-3.71036333E+000	-1.17712078E+002	
-3.68965003E+000	-1.17737217E+002	
-3.66893672E+000	-1.17777713E+002	
-3.64822342E+000	-1.17742554E+002	
-3.62751011E+000	-1.17751278E+002	
-3.60679680E+000	-1.17746222E+002	
-3.58608350E+000	-1.17744866E+002	
-3.56537019E+000	-1.17772163E+002	
-3.54465689E+000	-1.17788277E+002	
-3.52394358E+000	-1.17816302E+002	
-3.50323028E+000	-1.17857775E+002	
-3.48251697E+000	-1.17891664E+002	
-3.46180367E+000	-1.17919044E+002	
-3.44109036E+000	-1.17936806E+002	
-3.42037706E+000	-1.17968602E+002	
-3.39966375E+000	-1.18001600E+002	
-3.37895045E+000	-1.18049052E+002	
-3.35823714E+000	-1.18043706E+002	
-3.33752384E+000	-1.18052804E+002	
-3.31681053E+000	-1.18066592E+002	
-3.29609722E+000	-1.18041198E+002	
-3.27538392E+000	-1.18055663E+002	
-3.25467061E+000	-1.18061681E+002	
-3.23395731E+000	-1.18046977E+002	
-3.21324400E+000	-1.18067825E+002	
-3.19253070E+000	-1.18065586E+002	
-3.17181739E+000	-1.18044221E+002	
-3.15110409E+000	-1.18017262E+002	
-3.13039078E+000	-1.18008070E+002	
-3.10967748E+000	-1.18050962E+002	
-3.08896417E+000	-1.18038224E+002	
-3.06825087E+000	-1.18025105E+002	
-3.04753756E+000	-1.18044263E+002	
-3.02682426E+000	-1.18006930E+002	
-3.00611095E+000	-1.17935523E+002	
-2.98539764E+000	-1.17975132E+002	
-2.96468434E+000	-1.17939012E+002	
-2.94397103E+000	-1.17911170E+002	
-2.92325773E+000	-1.17875390E+002	
-2.90254442E+000	-1.17879891E+002	
-2.88183112E+000	-1.17889380E+002	
-2.86111781E+000	-1.17935236E+002	
-2.84040451E+000	-1.17977349E+002	
-2.81969120E+000	-1.18010014E+002	
-2.79897790E+000	-1.18073573E+002	
-2.77826459E+000	-1.18029477E+002	
-2.75755129E+000	-1.18003321E+002	
-2.73683798E+000	-1.18012976E+002	
-2.71612468E+000	-1.17967565E+002	
-2.69541137E+000	-1.17953038E+002	
-2.67469807E+000	-1.18009934E+002	
-2.65398476E+000	-1.18032010E+002	
-2.63327145E+000	-1.18030444E+002	
-2.61255815E+000	-1.17975118E+002	
-2.59184484E+000	-1.17975357E+002	
-2.57113154E+000	-1.17966399E+002	
-2.55041823E+000	-1.17962876E+002	
-2.52970493E+000	-1.18015523E+002	
-2.50899162E+000	-1.18082158E+002	
-2.48827832E+000	-1.18063597E+002	
-2.46756501E+000	-1.18064526E+002	
-2.44685171E+000	-1.18065784E+002	
-2.42613840E+000	-1.18084500E+002	
-2.40542510E+000	-1.18091472E+002	
-2.38471179E+000	-1.18075035E+002	
-2.36399849E+000	-1.18054208E+002	
-2.34328518E+000	-1.18006208E+002	
-2.32257187E+000	-1.17956209E+002	
-2.30185857E+000	-1.17883250E+002	
-2.28114526E+000	-1.17912050E+002	
-2.26043196E+000	-1.17991009E+002	
-2.23971865E+000	-1.17982219E+002	
-2.21900535E+000	-1.18042709E+002	
-2.19829204E+000	-1.18064348E+002	
-2.17757874E+000	-1.18024794E+002	
-2.15686543E+000	-1.18013623E+002	
-2.13615213E+000	-1.18065232E+002	
-2.11543882E+000	-1.18065582E+002	
-2.09472552E+000	-1.18077768E+002	
-2.07401221E+000	-1.18051418E+002	
-2.05329891E+000	-1.18006370E+002	
-2.03258560E+000	-1.18013337E+002	
-2.01187229E+000	-1.18006549E+002	
-1.99115899E+000	-1.18009373E+002	
-1.97044568E+000	-1.17938889E+002	
-1.94973238E+000	-1.17952094E+002	
-1.92901907E+000	-1.17935448E+002	
-1.90830577E+000	-1.17889797E+002	
-1.88759246E+000	-1.17889208E+002	
-1.86687916E+000	-1.17924169E+002	
-1.84616585E+000	-1.17890320E+002	
-1.82545255E+000	-1.17969669E+002	
-1.80473924E+000	-1.17978747E+002	
-1.78402594E+000	-1.18011086E+002	
-1.76331263E+000	-1.18009410E+002	
-1.74259933E+000	-1.17962853E+002	
-1.72188602E+000	-1.17960184E+002	
-1.70117272E+000	-1.18026897E+002	
-1.68045941E+000	-1.18046673E+002	
-1.65974610E+000	-1.18005040E+002	
-1.63903280E+000	-1.17964209E+002	
-1.61831949E+000	-1.18025795E+002	
-1.59760619E+000	-1.18042784E+002	
-1.57689288E+000	-1.18051013E+002	
-1.55617958E+000	-1.18099562E+002	
-1.53546627E+000	-1.18084385E+002	
-1.51475297E+000	-1.18091143E+002	
-1.49403966E+000	-1.18064110E+002	
-1.47332636E+000	-1.18112144E+002	
-1.45261305E+000	-1.18083632E+002	
-1.43189975E+000	-1.18080987E+002	
-1.41118644E+000	-1.18073373E+002	
-1.39047314E+000	-1.18097637E+002	
-1.36975983E+000	-1.18052653E+002	
-1.34904652E+000	-1.18055043E+002	
-1.32833322E+000	-1.18008543E+002	
-1.30761991E+000	-1.17960566E+002	
-1.28690661E+000	-1.17969778E+002	
-1.26619330E+000	-1.17958502E+002	
-1.24548000E+000	-1.18006117E+002	
-1.22476669E+000	-1.18020911E+002	
-1.20405339E+000	-1.17926590E+002	
-1.18334008E+000	-1.17919012E+002	
-1.16262678E+000	-1.17985246E+002	
-1.14191347E+000	-1.18013519E+002	
-1.12120017E+000	-1.18001991E+002	
-1.10048686E+000	-1.17971303E+002	
-1.07977356E+000	-1.17981440E+002	
-1.05906025E+000	-1.18023432E+002	
-1.03834694E+000	-1.18004477E+002	
-1.01763364E+000	-1.17939514E+002	
-9.96920334E-001	-1.17853693E+002	
-9.76207029E-001	-1.17817636E+002	
-9.55493724E-001	-1.17836632E+002	
-9.34780418E-001	-1.17852018E+002	
-9.14067113E-001	-1.17898337E+002	
-8.93353808E-001	-1.17878490E+002	
-8.72640502E-001	-1.17859192E+002	
-8.51927197E-001	-1.17891639E+002	
-8.31213892E-001	-1.17920791E+002	
-8.10500586E-001	-1.17979294E+002	
-7.89787281E-001	-1.17997344E+002	
-7.69073976E-001	-1.18009428E+002	
-7.48360671E-001	-1.17997516E+002	
-7.27647365E-001	-1.17997405E+002	
-7.06934060E-001	-1.18025635E+002	
-6.86220755E-001	-1.18048034E+002	
-6.65507449E-001	-1.18075344E+002	
-6.44794144E-001	-1.18071059E+002	
-6.24080839E-001	-1.18039893E+002	
-6.03367533E-001	-1.18038801E+002	
-5.82654228E-001	-1.18013678E+002	
-5.61940923E-001	-1.17961325E+002	
-5.41227617E-001	-1.17920070E+002	
-5.20514312E-001	-1.17952578E+002	
-4.99801007E-001	-1.18057255E+002	
-4.79087701E-001	-1.18130159E+002	
-4.58374396E-001	-1.18154151E+002	
-4.37661091E-001	-1.18117084E+002	
-4.16947785E-001	-1.18094773E+002	
-3.96234480E-001	-1.18099673E+002	
-3.75521175E-001	-1.18114770E+002	
-3.54807869E-001	-1.18129685E+002	
-3.34094564E-001	-1.18142107E+002	
-3.13381259E-001	-1.18162430E+002	
-2.92667954E-001	-1.18115051E+002	
-2.71954648E-001	-1.18051040E+002	
-2.51241343E-001	-8.64404774E+001	
-2.30528038E-001	-8.61724133E+001	
-2.09814732E-001	-8.61723831E+001	
-1.89101427E-001	-8.61723868E+001	
-1.68388122E-001	-8.61723819E+001	
-1.47674816E-001	-8.61723601E+001	
-1.26961511E-001	-8.61723219E+001	
-1.06248206E-001	-8.61722859E+001	
-8.55349003E-002	-8.61723133E+001	
-6.48215950E-002	-8.61723516E+001	
-4.41082897E-002	-8.61724273E+001	
-2.33949844E-002	-8.61724573E+001	
-2.68167905E-003	-8.61724803E+001	
1.80316263E-002	-8.61724782E+001	
3.87449316E-002	-8.61724985E+001	
5.94582369E-002	-8.61725538E+001	
8.01715422E-002	-8.61725854E+001	
1.00884848E-001	-8.61726090E+001	
1.21598153E-001	-8.61726513E+001	
1.42311458E-001	-8.61726643E+001	
1.63024763E-001	-8.61726737E+001	
1.83738069E-001	-8.61726586E+001	
2.04451374E-001	-8.61726641E+001	
2.25164679E-001	-8.61726914E+001	
2.45877985E-001	-9.29815878E+001	
2.66591290E-001	-1.18573863E+002	
2.87304595E-001	-1.18653692E+002	
3.08017901E-001	-1.18682603E+002	
3.28731206E-001	-1.18636000E+002	
3.49444511E-001	-1.18662328E+002	
3.70157817E-001	-1.18740436E+002	
3.90871122E-001	-1.18819758E+002	
4.11584427E-001	-1.18835075E+002	
4.32297733E-001	-1.18853179E+002	
4.53011038E-001	-1.18858579E+002	
4.73724343E-001	-1.18847335E+002	
4.94437649E-001	-1.18811237E+002	
5.15150954E-001	-1.18828718E+002	
5.35864259E-001	-1.18782620E+002	
5.56577565E-001	-1.18727791E+002	
5.77290870E-001	-1.18758003E+002	
5.98004175E-001	-1.18791487E+002	
6.18717481E-001	-1.18757150E+002	
6.39430786E-001	-1.18729964E+002	
6.60144091E-001	-1.18754238E+002	
6.80857396E-001	-1.18784561E+002	
7.01570702E-001	-1.18820058E+002	
7.22284007E-001	-1.18832306E+002	
7.42997312E-001	-1.18834640E+002	
7.63710618E-001	-1.18806661E+002	
7.84423923E-001	-1.18794614E+002	
8.05137228E-001	-1.18794231E+002	
8.25850534E-001	-1.18824034E+002	
8.46563839E-001	-1.18813868E+002	
8.67277144E-001	-1.18852493E+002	
8.87990450E-001	-1.18882413E+002	
9.08703755E-001	-1.18859233E+002	
9.29417060E-001	-1.18835404E+002	
9.50130366E-001	-1.18839951E+002	
9.70843671E-001	-1.18842351E+002	
9.91556976E-001	-1.18907523E+002	
1.01227028E+000	-1.18898819E+002	
1.03298359E+000	-1.18937027E+002	
1.05369689E+000	-1.19009207E+002	
1.07441020E+000	-1.19001116E+002	
1.09512350E+000	-1.18942703E+002	
1.11583681E+000	-1.18920861E+002	
1.13655011E+000	-1.18963901E+002	
1.15726342E+000	-1.18959588E+002	
1.17797672E+000	-1.18981242E+002	
1.19869003E+000	-1.18990886E+002	
1.21940333E+000	-1.19010380E+002	
1.24011664E+000	-1.19009072E+002	
1.26082995E+000	-1.18973830E+002	
1.28154325E+000	-1.19006246E+002	
1.30225656E+000	-1.19036649E+002	
1.32296986E+000	-1.19022626E+002	
1.34368317E+000	-1.19092562E+002	
1.36439647E+000	-1.19124310E+002	
1.38510978E+000	-1.19157728E+002	
1.40582308E+000	-1.19200427E+002	
1.42653639E+000	-1.19199654E+002	
1.44724969E+000	-1.19166072E+002	
1.46796300E+000	-1.19166605E+002	
1.48867630E+000	-1.19162505E+002	
1.50938961E+000	-1.19162951E+002	
1.53010291E+000	-1.19135680E+002	
1.55081622E+000	-1.19077801E+002	
1.57152953E+000	-1.19016542E+002	
