Acquired on 8/13/2021 at 13:14:30
Calibrated on 8/13/2021 at 11:06:07
Device Descriptor:  [none]
Scan Range (nm):  1539.624  --  1560.517
Measurement Type:  Reflection
Group Index:  1.500
Gain:  24 dB
Domain:  Time
Spatial Resolution (mm):  50.000000
Frequency domain window was applied to measurement data.
Number of Data Points (in this file):  16384
NOTE: Data stored in this file is decimated by a factor of 64.

Time (ns)	Amplitude (dB)	
-1.00072081E+001	-1.20756023E+002	
-9.98649484E+000	-1.20420687E+002	
-9.96578154E+000	-1.20061286E+002	
-9.94506823E+000	-1.19798439E+002	
-9.92435493E+000	-1.19566584E+002	
-9.90364162E+000	-1.19324377E+002	
-9.88292832E+000	-1.19107537E+002	
-9.86221501E+000	-1.18894243E+002	
-9.84150171E+000	-1.18694675E+002	
-9.82078840E+000	-1.18515155E+002	
-9.80007509E+000	-1.18316143E+002	
-9.77936179E+000	-1.18117905E+002	
-9.75864848E+000	-1.18058828E+002	
-9.73793518E+000	-1.18065089E+002	
-9.71722187E+000	-1.18057928E+002	
-9.69650857E+000	-1.18058431E+002	
-9.67579526E+000	-1.18114500E+002	
-9.65508196E+000	-1.18096391E+002	
-9.63436865E+000	-1.18041247E+002	
-9.61365535E+000	-1.18046415E+002	
-9.59294204E+000	-1.18077091E+002	
-9.57222874E+000	-1.18105961E+002	
-9.55151543E+000	-1.18124030E+002	
-9.53080213E+000	-1.18117448E+002	
-9.51008882E+000	-1.18146176E+002	
-9.48937552E+000	-1.18172558E+002	
-9.46866221E+000	-1.18172100E+002	
-9.44794890E+000	-1.18144513E+002	
-9.42723560E+000	-1.18098476E+002	
-9.40652229E+000	-1.18099838E+002	
-9.38580899E+000	-1.18077520E+002	
-9.36509568E+000	-1.18070085E+002	
-9.34438238E+000	-1.18037259E+002	
-9.32366907E+000	-1.18012313E+002	
-9.30295577E+000	-1.18009305E+002	
-9.28224246E+000	-1.18023936E+002	
-9.26152916E+000	-1.17977470E+002	
-9.24081585E+000	-1.17923505E+002	
-9.22010255E+000	-1.17915102E+002	
-9.19938924E+000	-1.17950136E+002	
-9.17867594E+000	-1.17933643E+002	
-9.15796263E+000	-1.17934988E+002	
-9.13724932E+000	-1.17997500E+002	
-9.11653602E+000	-1.18003241E+002	
-9.09582271E+000	-1.17957860E+002	
-9.07510941E+000	-1.17966803E+002	
-9.05439610E+000	-1.17967606E+002	
-9.03368280E+000	-1.17842864E+002	
-9.01296949E+000	-1.17828977E+002	
-8.99225619E+000	-1.17831526E+002	
-8.97154288E+000	-1.17883040E+002	
-8.95082958E+000	-1.17897281E+002	
-8.93011627E+000	-1.17926575E+002	
-8.90940297E+000	-1.17946476E+002	
-8.88868966E+000	-1.17973910E+002	
-8.86797636E+000	-1.17968417E+002	
-8.84726305E+000	-1.17984098E+002	
-8.82654974E+000	-1.17968216E+002	
-8.80583644E+000	-1.17980860E+002	
-8.78512313E+000	-1.17983201E+002	
-8.76440983E+000	-1.17999102E+002	
-8.74369652E+000	-1.18058346E+002	
-8.72298322E+000	-1.18078580E+002	
-8.70226991E+000	-1.18014350E+002	
-8.68155661E+000	-1.17984180E+002	
-8.66084330E+000	-1.18021983E+002	
-8.64013000E+000	-1.17991334E+002	
-8.61941669E+000	-1.17949518E+002	
-8.59870339E+000	-1.17994474E+002	
-8.57799008E+000	-1.17993592E+002	
-8.55727678E+000	-1.17947546E+002	
-8.53656347E+000	-1.18061021E+002	
-8.51585017E+000	-1.18085260E+002	
-8.49513686E+000	-1.18092869E+002	
-8.47442355E+000	-1.18079656E+002	
-8.45371025E+000	-1.18112062E+002	
-8.43299694E+000	-1.18150637E+002	
-8.41228364E+000	-1.18108613E+002	
-8.39157033E+000	-1.18078659E+002	
-8.37085703E+000	-1.18124933E+002	
-8.35014372E+000	-1.18139979E+002	
-8.32943042E+000	-1.18161362E+002	
-8.30871711E+000	-1.18117776E+002	
-8.28800381E+000	-1.18154276E+002	
-8.26729050E+000	-1.18138400E+002	
-8.24657720E+000	-1.18130477E+002	
-8.22586389E+000	-1.18110663E+002	
-8.20515059E+000	-1.18153199E+002	
-8.18443728E+000	-1.18143454E+002	
-8.16372397E+000	-1.18122515E+002	
-8.14301067E+000	-1.18070627E+002	
-8.12229736E+000	-1.18087784E+002	
-8.10158406E+000	-1.18079620E+002	
-8.08087075E+000	-1.18076785E+002	
-8.06015745E+000	-1.18063174E+002	
-8.03944414E+000	-1.18013078E+002	
-8.01873084E+000	-1.18027917E+002	
-7.99801753E+000	-1.18004872E+002	
-7.97730423E+000	-1.18000771E+002	
-7.95659092E+000	-1.17966240E+002	
-7.93587762E+000	-1.17973939E+002	
-7.91516431E+000	-1.18013496E+002	
-7.89445101E+000	-1.18012933E+002	
-7.87373770E+000	-1.17986195E+002	
-7.85302439E+000	-1.17978056E+002	
-7.83231109E+000	-1.17954885E+002	
-7.81159778E+000	-1.18008209E+002	
-7.79088448E+000	-1.18033711E+002	
-7.77017117E+000	-1.18051894E+002	
-7.74945787E+000	-1.18064885E+002	
-7.72874456E+000	-1.18073571E+002	
-7.70803126E+000	-1.18031980E+002	
-7.68731795E+000	-1.18069880E+002	
-7.66660465E+000	-1.18063143E+002	
-7.64589134E+000	-1.18068560E+002	
-7.62517804E+000	-1.18053097E+002	
-7.60446473E+000	-1.17995759E+002	
-7.58375143E+000	-1.18008505E+002	
-7.56303812E+000	-1.18038257E+002	
-7.54232482E+000	-1.18105185E+002	
-7.52161151E+000	-1.18092459E+002	
-7.50089820E+000	-1.18112464E+002	
-7.48018490E+000	-1.18080152E+002	
-7.45947159E+000	-1.18124229E+002	
-7.43875829E+000	-1.18059495E+002	
-7.41804498E+000	-1.17976654E+002	
-7.39733168E+000	-1.18026724E+002	
-7.37661837E+000	-1.18041439E+002	
-7.35590507E+000	-1.18049512E+002	
-7.33519176E+000	-1.18068880E+002	
-7.31447846E+000	-1.18084126E+002	
-7.29376515E+000	-1.18054219E+002	
-7.27305185E+000	-1.18027825E+002	
-7.25233854E+000	-1.18059734E+002	
-7.23162524E+000	-1.18081306E+002	
-7.21091193E+000	-1.18079084E+002	
-7.19019862E+000	-1.18079488E+002	
-7.16948532E+000	-1.18129799E+002	
-7.14877201E+000	-1.18203952E+002	
-7.12805871E+000	-1.18260633E+002	
-7.10734540E+000	-1.18328788E+002	
-7.08663210E+000	-1.18360866E+002	
-7.06591879E+000	-1.18339327E+002	
-7.04520549E+000	-1.18322071E+002	
-7.02449218E+000	-1.18303640E+002	
-7.00377888E+000	-1.18273901E+002	
-6.98306557E+000	-1.18316281E+002	
-6.96235227E+000	-1.18276856E+002	
-6.94163896E+000	-1.18301383E+002	
-6.92092566E+000	-1.18368192E+002	
-6.90021235E+000	-1.18357143E+002	
-6.87949904E+000	-1.18323367E+002	
-6.85878574E+000	-1.18307532E+002	
-6.83807243E+000	-1.18333554E+002	
-6.81735913E+000	-1.18347915E+002	
-6.79664582E+000	-1.18311007E+002	
-6.77593252E+000	-1.18352989E+002	
-6.75521921E+000	-1.18300507E+002	
-6.73450591E+000	-1.18282129E+002	
-6.71379260E+000	-1.18252271E+002	
-6.69307930E+000	-1.18245652E+002	
-6.67236599E+000	-1.18200605E+002	
-6.65165269E+000	-1.18177743E+002	
-6.63093938E+000	-1.18198924E+002	
-6.61022608E+000	-1.18213224E+002	
-6.58951277E+000	-1.18197047E+002	
-6.56879947E+000	-1.18186392E+002	
-6.54808616E+000	-1.18174540E+002	
-6.52737285E+000	-1.18153764E+002	
-6.50665955E+000	-1.18173412E+002	
-6.48594624E+000	-1.18214827E+002	
-6.46523294E+000	-1.18256823E+002	
-6.44451963E+000	-1.18193950E+002	
-6.42380633E+000	-1.18152372E+002	
-6.40309302E+000	-1.18156498E+002	
-6.38237972E+000	-1.18130662E+002	
-6.36166641E+000	-1.18129222E+002	
-6.34095311E+000	-1.18131868E+002	
-6.32023980E+000	-1.18128969E+002	
-6.29952650E+000	-1.18136448E+002	
-6.27881319E+000	-1.18102667E+002	
-6.25809989E+000	-1.18124136E+002	
-6.23738658E+000	-1.18122325E+002	
-6.21667327E+000	-1.18109194E+002	
-6.19595997E+000	-1.18122800E+002	
-6.17524666E+000	-1.18113979E+002	
-6.15453336E+000	-1.18116462E+002	
-6.13382005E+000	-1.18093605E+002	
-6.11310675E+000	-1.18101150E+002	
-6.09239344E+000	-1.18110599E+002	
-6.07168014E+000	-1.18069930E+002	
-6.05096683E+000	-1.18132918E+002	
-6.03025353E+000	-1.18150281E+002	
-6.00954022E+000	-1.18142235E+002	
-5.98882692E+000	-1.18094297E+002	
-5.96811361E+000	-1.18094692E+002	
-5.94740031E+000	-1.18138933E+002	
-5.92668700E+000	-1.18185716E+002	
-5.90597369E+000	-1.18202980E+002	
-5.88526039E+000	-1.18252375E+002	
-5.86454708E+000	-1.18272657E+002	
-5.84383378E+000	-1.18233929E+002	
-5.82312047E+000	-1.18249448E+002	
-5.80240717E+000	-1.18222831E+002	
-5.78169386E+000	-1.18245833E+002	
-5.76098056E+000	-1.18231887E+002	
-5.74026725E+000	-1.18226532E+002	
-5.71955395E+000	-1.18277162E+002	
-5.69884064E+000	-1.18278216E+002	
-5.67812734E+000	-1.18316542E+002	
-5.65741403E+000	-1.18317162E+002	
-5.63670073E+000	-1.18321521E+002	
-5.61598742E+000	-1.18291232E+002	
-5.59527412E+000	-1.18257715E+002	
-5.57456081E+000	-1.18322145E+002	
-5.55384750E+000	-1.18240659E+002	
-5.53313420E+000	-1.18163492E+002	
-5.51242089E+000	-1.18166211E+002	
-5.49170759E+000	-1.18168834E+002	
-5.47099428E+000	-1.18148572E+002	
-5.45028098E+000	-1.18210430E+002	
-5.42956767E+000	-1.18249364E+002	
-5.40885437E+000	-1.18221903E+002	
-5.38814106E+000	-1.18197842E+002	
-5.36742776E+000	-1.18179289E+002	
-5.34671445E+000	-1.18210543E+002	
-5.32600115E+000	-1.18202054E+002	
-5.30528784E+000	-1.18228051E+002	
-5.28457454E+000	-1.18195073E+002	
-5.26386123E+000	-1.18190332E+002	
-5.24314792E+000	-1.18136592E+002	
-5.22243462E+000	-1.18101447E+002	
-5.20172131E+000	-1.18108215E+002	
-5.18100801E+000	-1.18058492E+002	
-5.16029470E+000	-1.18041039E+002	
-5.13958140E+000	-1.18003671E+002	
-5.11886809E+000	-1.17985054E+002	
-5.09815479E+000	-1.17993602E+002	
-5.07744148E+000	-1.17956041E+002	
-5.05672818E+000	-1.18019319E+002	
-5.03601487E+000	-1.18042104E+002	
-5.01530157E+000	-1.18084395E+002	
-4.99458826E+000	-1.18095347E+002	
-4.97387496E+000	-1.18043838E+002	
-4.95316165E+000	-1.18033430E+002	
-4.93244834E+000	-1.17992468E+002	
-4.91173504E+000	-1.17981699E+002	
-4.89102173E+000	-1.17982364E+002	
-4.87030843E+000	-1.18016672E+002	
-4.84959512E+000	-1.18006191E+002	
-4.82888182E+000	-1.17972598E+002	
-4.80816851E+000	-1.17952604E+002	
-4.78745521E+000	-1.17969908E+002	
-4.76674190E+000	-1.18004119E+002	
-4.74602860E+000	-1.18027692E+002	
-4.72531529E+000	-1.18074223E+002	
-4.70460199E+000	-1.18062087E+002	
-4.68388868E+000	-1.18106361E+002	
-4.66317538E+000	-1.18102400E+002	
-4.64246207E+000	-1.18139544E+002	
-4.62174877E+000	-1.18179367E+002	
-4.60103546E+000	-1.18219913E+002	
-4.58032215E+000	-1.18237749E+002	
-4.55960885E+000	-1.18210823E+002	
-4.53889554E+000	-1.18242383E+002	
-4.51818224E+000	-1.18161885E+002	
-4.49746893E+000	-1.18111171E+002	
-4.47675563E+000	-1.18161412E+002	
-4.45604232E+000	-1.18151763E+002	
-4.43532902E+000	-1.18144731E+002	
-4.41461571E+000	-1.18129177E+002	
-4.39390241E+000	-1.18151667E+002	
-4.37318910E+000	-1.18159824E+002	
-4.35247580E+000	-1.18132615E+002	
-4.33176249E+000	-1.18123130E+002	
-4.31104919E+000	-1.18119688E+002	
-4.29033588E+000	-1.18113562E+002	
-4.26962257E+000	-1.18107568E+002	
-4.24890927E+000	-1.18149510E+002	
-4.22819596E+000	-1.18160046E+002	
-4.20748266E+000	-1.18200126E+002	
-4.18676935E+000	-1.18153873E+002	
-4.16605605E+000	-1.18166240E+002	
-4.14534274E+000	-1.18182790E+002	
-4.12462944E+000	-1.18149429E+002	
-4.10391613E+000	-1.18137485E+002	
-4.08320283E+000	-1.18130068E+002	
-4.06248952E+000	-1.18123260E+002	
-4.04177622E+000	-1.18089120E+002	
-4.02106291E+000	-1.18131796E+002	
-4.00034961E+000	-1.18137423E+002	
-3.97963630E+000	-1.18102299E+002	
-3.95892299E+000	-1.18112533E+002	
-3.93820969E+000	-1.18093711E+002	
-3.91749638E+000	-1.18116785E+002	
-3.89678308E+000	-1.18085241E+002	
-3.87606977E+000	-1.18006103E+002	
-3.85535647E+000	-1.18012347E+002	
-3.83464316E+000	-1.18007226E+002	
-3.81392986E+000	-1.18009329E+002	
-3.79321655E+000	-1.18039017E+002	
-3.77250325E+000	-1.17970113E+002	
-3.75178994E+000	-1.17970013E+002	
-3.73107664E+000	-1.17982938E+002	
-3.71036333E+000	-1.17914752E+002	
-3.68965003E+000	-1.17942376E+002	
-3.66893672E+000	-1.17985859E+002	
-3.64822342E+000	-1.17943021E+002	
-3.62751011E+000	-1.17957558E+002	
-3.60679680E+000	-1.17958752E+002	
-3.58608350E+000	-1.17958169E+002	
-3.56537019E+000	-1.17982670E+002	
-3.54465689E+000	-1.17994409E+002	
-3.52394358E+000	-1.18022773E+002	
-3.50323028E+000	-1.18064970E+002	
-3.48251697E+000	-1.18094672E+002	
-3.46180367E+000	-1.18119044E+002	
-3.44109036E+000	-1.18139734E+002	
-3.42037706E+000	-1.18174956E+002	
-3.39966375E+000	-1.18209906E+002	
-3.37895045E+000	-1.18259282E+002	
-3.35823714E+000	-1.18251351E+002	
-3.33752384E+000	-1.18262092E+002	
-3.31681053E+000	-1.18268082E+002	
-3.29609722E+000	-1.18239517E+002	
-3.27538392E+000	-1.18261012E+002	
-3.25467061E+000	-1.18268302E+002	
-3.23395731E+000	-1.18252499E+002	
-3.21324400E+000	-1.18271802E+002	
-3.19253070E+000	-1.18270704E+002	
-3.17181739E+000	-1.18249122E+002	
-3.15110409E+000	-1.18230597E+002	
-3.13039078E+000	-1.18214145E+002	
-3.10967748E+000	-1.18245231E+002	
-3.08896417E+000	-1.18233033E+002	
-3.06825087E+000	-1.18220292E+002	
-3.04753756E+000	-1.18230345E+002	
-3.02682426E+000	-1.18194837E+002	
-3.00611095E+000	-1.18129070E+002	
-2.98539764E+000	-1.18166338E+002	
-2.96468434E+000	-1.18129856E+002	
-2.94397103E+000	-1.18100675E+002	
-2.92325773E+000	-1.18056430E+002	
-2.90254442E+000	-1.18055561E+002	
-2.88183112E+000	-1.18068138E+002	
-2.86111781E+000	-1.18120880E+002	
-2.84040451E+000	-1.18156915E+002	
-2.81969120E+000	-1.18193851E+002	
-2.79897790E+000	-1.18260036E+002	
-2.77826459E+000	-1.18221443E+002	
-2.75755129E+000	-1.18197654E+002	
-2.73683798E+000	-1.18208865E+002	
-2.71612468E+000	-1.18169577E+002	
-2.69541137E+000	-1.18148170E+002	
-2.67469807E+000	-1.18202745E+002	
-2.65398476E+000	-1.18223747E+002	
-2.63327145E+000	-1.18220252E+002	
-2.61255815E+000	-1.18166407E+002	
-2.59184484E+000	-1.18164559E+002	
-2.57113154E+000	-1.18154319E+002	
-2.55041823E+000	-1.18158136E+002	
-2.52970493E+000	-1.18210612E+002	
-2.50899162E+000	-1.18272726E+002	
-2.48827832E+000	-1.18254884E+002	
-2.46756501E+000	-1.18254238E+002	
-2.44685171E+000	-1.18259164E+002	
-2.42613840E+000	-1.18282577E+002	
-2.40542510E+000	-1.18289339E+002	
-2.38471179E+000	-1.18270625E+002	
-2.36399849E+000	-1.18242300E+002	
-2.34328518E+000	-1.18202381E+002	
-2.32257187E+000	-1.18150985E+002	
-2.30185857E+000	-1.18074086E+002	
-2.28114526E+000	-1.18091562E+002	
-2.26043196E+000	-1.18168276E+002	
-2.23971865E+000	-1.18152910E+002	
-2.21900535E+000	-1.18204652E+002	
-2.19829204E+000	-1.18231772E+002	
-2.17757874E+000	-1.18189857E+002	
-2.15686543E+000	-1.18177324E+002	
-2.13615213E+000	-1.18225420E+002	
-2.11543882E+000	-1.18228990E+002	
-2.09472552E+000	-1.18243941E+002	
-2.07401221E+000	-1.18215247E+002	
-2.05329891E+000	-1.18158557E+002	
-2.03258560E+000	-1.18167476E+002	
-2.01187229E+000	-1.18164753E+002	
-1.99115899E+000	-1.18169036E+002	
-1.97044568E+000	-1.18109596E+002	
-1.94973238E+000	-1.18128181E+002	
-1.92901907E+000	-1.18108937E+002	
-1.90830577E+000	-1.18063752E+002	
-1.88759246E+000	-1.18062059E+002	
-1.86687916E+000	-1.18100795E+002	
-1.84616585E+000	-1.18070770E+002	
-1.82545255E+000	-1.18149334E+002	
-1.80473924E+000	-1.18158026E+002	
-1.78402594E+000	-1.18192927E+002	
-1.76331263E+000	-1.18187503E+002	
-1.74259933E+000	-1.18142087E+002	
-1.72188602E+000	-1.18142343E+002	
-1.70117272E+000	-1.18211692E+002	
-1.68045941E+000	-1.18234735E+002	
-1.65974610E+000	-1.18190661E+002	
-1.63903280E+000	-1.18157290E+002	
-1.61831949E+000	-1.18219333E+002	
-1.59760619E+000	-1.18231384E+002	
-1.57689288E+000	-1.18243228E+002	
-1.55617958E+000	-1.18312433E+002	
-1.53546627E+000	-1.18296860E+002	
-1.51475297E+000	-1.18297085E+002	
-1.49403966E+000	-1.18271674E+002	
-1.47332636E+000	-1.18320368E+002	
-1.45261305E+000	-1.18283526E+002	
-1.43189975E+000	-1.18286287E+002	
-1.41118644E+000	-1.18278547E+002	
-1.39047314E+000	-1.18303244E+002	
-1.36975983E+000	-1.18257889E+002	
-1.34904652E+000	-1.18254227E+002	
-1.32833322E+000	-1.18205799E+002	
-1.30761991E+000	-1.18163535E+002	
-1.28690661E+000	-1.18173120E+002	
-1.26619330E+000	-1.18165359E+002	
-1.24548000E+000	-1.18214801E+002	
-1.22476669E+000	-1.18235963E+002	
-1.20405339E+000	-1.18132914E+002	
-1.18334008E+000	-1.18125251E+002	
-1.16262678E+000	-1.18192661E+002	
-1.14191347E+000	-1.18224817E+002	
-1.12120017E+000	-1.18216999E+002	
-1.10048686E+000	-1.18190054E+002	
-1.07977356E+000	-1.18201349E+002	
-1.05906025E+000	-1.18228963E+002	
-1.03834694E+000	-1.18209017E+002	
-1.01763364E+000	-1.18144390E+002	
-9.96920334E-001	-1.18056126E+002	
-9.76207029E-001	-1.18015126E+002	
-9.55493724E-001	-1.18030792E+002	
-9.34780418E-001	-1.18042360E+002	
-9.14067113E-001	-1.18085175E+002	
-8.93353808E-001	-1.18065878E+002	
-8.72640502E-001	-1.18047776E+002	
-8.51927197E-001	-1.18080015E+002	
-8.31213892E-001	-1.18109972E+002	
-8.10500586E-001	-1.18166217E+002	
-7.89787281E-001	-1.18186165E+002	
-7.69073976E-001	-1.18192507E+002	
-7.48360671E-001	-1.18180983E+002	
-7.27647365E-001	-1.18169887E+002	
-7.06934060E-001	-1.18199360E+002	
-6.86220755E-001	-1.18220687E+002	
-6.65507449E-001	-1.18247191E+002	
-6.44794144E-001	-1.18239152E+002	
-6.24080839E-001	-1.18201855E+002	
-6.03367533E-001	-1.18199078E+002	
-5.82654228E-001	-1.18175214E+002	
-5.61940923E-001	-1.18132108E+002	
-5.41227617E-001	-1.18096146E+002	
-5.20514312E-001	-1.18125107E+002	
-4.99801007E-001	-1.18228811E+002	
-4.79087701E-001	-1.18305413E+002	
-4.58374396E-001	-1.18337169E+002	
-4.37661091E-001	-1.18306855E+002	
-4.16947785E-001	-1.18292049E+002	
-3.96234480E-001	-1.18301790E+002	
-3.75521175E-001	-1.18311890E+002	
-3.54807869E-001	-1.18320993E+002	
-3.34094564E-001	-1.18322949E+002	
-3.13381259E-001	-1.18337178E+002	
-2.92667954E-001	-1.18289188E+002	
-2.71954648E-001	-1.18169142E+002	
-2.51241343E-001	-8.59354712E+001	
-2.30528038E-001	-8.56327738E+001	
-2.09814732E-001	-8.56327402E+001	
-1.89101427E-001	-8.56327397E+001	
-1.68388122E-001	-8.56327325E+001	
-1.47674816E-001	-8.56327086E+001	
-1.26961511E-001	-8.56326525E+001	
-1.06248206E-001	-8.56326255E+001	
-8.55349003E-002	-8.56326332E+001	
-6.48215950E-002	-8.56326653E+001	
-4.41082897E-002	-8.56327226E+001	
-2.33949844E-002	-8.56327552E+001	
-2.68167905E-003	-8.56327833E+001	
1.80316263E-002	-8.56327749E+001	
3.87449316E-002	-8.56327881E+001	
5.94582369E-002	-8.56328285E+001	
8.01715422E-002	-8.56328523E+001	
1.00884848E-001	-8.56328691E+001	
1.21598153E-001	-8.56329063E+001	
1.42311458E-001	-8.56329192E+001	
1.63024763E-001	-8.56329284E+001	
1.83738069E-001	-8.56329139E+001	
2.04451374E-001	-8.56329156E+001	
2.25164679E-001	-8.56329653E+001	
2.45877985E-001	-9.22902909E+001	
2.66591290E-001	-1.18583113E+002	
2.87304595E-001	-1.18674956E+002	
3.08017901E-001	-1.18712649E+002	
3.28731206E-001	-1.18669576E+002	
3.49444511E-001	-1.18691091E+002	
3.70157817E-001	-1.18821635E+002	
3.90871122E-001	-1.18882686E+002	
4.11584427E-001	-1.18937952E+002	
4.32297733E-001	-1.18957262E+002	
4.53011038E-001	-1.18969425E+002	
4.73724343E-001	-1.18946658E+002	
4.94437649E-001	-1.18894288E+002	
5.15150954E-001	-1.18917767E+002	
5.35864259E-001	-1.18876756E+002	
5.56577565E-001	-1.18825972E+002	
5.77290870E-001	-1.18853722E+002	
5.98004175E-001	-1.18884112E+002	
6.18717481E-001	-1.18850819E+002	
6.39430786E-001	-1.18829177E+002	
6.60144091E-001	-1.18859036E+002	
6.80857396E-001	-1.18900577E+002	
7.01570702E-001	-1.18935868E+002	
7.22284007E-001	-1.18950093E+002	
7.42997312E-001	-1.18953735E+002	
7.63710618E-001	-1.18938285E+002	
7.84423923E-001	-1.18939536E+002	
8.05137228E-001	-1.18935045E+002	
8.25850534E-001	-1.18977128E+002	
8.46563839E-001	-1.18980671E+002	
8.67277144E-001	-1.19011978E+002	
8.87990450E-001	-1.19047739E+002	
9.08703755E-001	-1.19022476E+002	
9.29417060E-001	-1.18993991E+002	
9.50130366E-001	-1.18996828E+002	
9.70843671E-001	-1.19001926E+002	
9.91556976E-001	-1.19071969E+002	
1.01227028E+000	-1.19062973E+002	
1.03298359E+000	-1.19098271E+002	
1.05369689E+000	-1.19173007E+002	
1.07441020E+000	-1.19167959E+002	
1.09512350E+000	-1.19118406E+002	
1.11583681E+000	-1.19097463E+002	
1.13655011E+000	-1.19131221E+002	
1.15726342E+000	-1.19125443E+002	
1.17797672E+000	-1.19143677E+002	
1.19869003E+000	-1.19150868E+002	
1.21940333E+000	-1.19172252E+002	
1.24011664E+000	-1.19180479E+002	
1.26082995E+000	-1.19143060E+002	
1.28154325E+000	-1.19175072E+002	
1.30225656E+000	-1.19210911E+002	
1.32296986E+000	-1.19192100E+002	
1.34368317E+000	-1.19258522E+002	
1.36439647E+000	-1.19295493E+002	
1.38510978E+000	-1.19335185E+002	
1.40582308E+000	-1.19376311E+002	
1.42653639E+000	-1.19375482E+002	
1.44724969E+000	-1.19340536E+002	
1.46796300E+000	-1.19342997E+002	
1.48867630E+000	-1.19333425E+002	
1.50938961E+000	-1.19330659E+002	
1.53010291E+000	-1.19302792E+002	
1.55081622E+000	-1.19238842E+002	
1.57152953E+000	-1.19173226E+002	
