Acquired on 8/13/2021 at 12:22:00
Calibrated on 8/13/2021 at 11:06:07
Device Descriptor:  [none]
Scan Range (nm):  1539.624  --  1560.517
Measurement Type:  Reflection
Group Index:  1.500
Gain:  24 dB
Domain:  Time
Spatial Resolution (mm):  50.000000
Frequency domain window was applied to measurement data.
Number of Data Points (in this file):  16384
NOTE: Data stored in this file is decimated by a factor of 64.

Time (ns)	Amplitude (dB)	
-1.00072081E+001	-1.20695187E+002	
-9.98649484E+000	-1.20361887E+002	
-9.96578154E+000	-1.19999930E+002	
-9.94506823E+000	-1.19738737E+002	
-9.92435493E+000	-1.19507997E+002	
-9.90364162E+000	-1.19264861E+002	
-9.88292832E+000	-1.19049105E+002	
-9.86221501E+000	-1.18834107E+002	
-9.84150171E+000	-1.18632618E+002	
-9.82078840E+000	-1.18453247E+002	
-9.80007509E+000	-1.18254491E+002	
-9.77936179E+000	-1.18055327E+002	
-9.75864848E+000	-1.17996381E+002	
-9.73793518E+000	-1.18006408E+002	
-9.71722187E+000	-1.18001539E+002	
-9.69650857E+000	-1.18006546E+002	
-9.67579526E+000	-1.18063747E+002	
-9.65508196E+000	-1.18041638E+002	
-9.63436865E+000	-1.17989909E+002	
-9.61365535E+000	-1.17992189E+002	
-9.59294204E+000	-1.18018024E+002	
-9.57222874E+000	-1.18040758E+002	
-9.55151543E+000	-1.18054987E+002	
-9.53080213E+000	-1.18049307E+002	
-9.51008882E+000	-1.18075744E+002	
-9.48937552E+000	-1.18099252E+002	
-9.46866221E+000	-1.18102315E+002	
-9.44794890E+000	-1.18073803E+002	
-9.42723560E+000	-1.18023630E+002	
-9.40652229E+000	-1.18019502E+002	
-9.38580899E+000	-1.17992711E+002	
-9.36509568E+000	-1.17985650E+002	
-9.34438238E+000	-1.17953793E+002	
-9.32366907E+000	-1.17925593E+002	
-9.30295577E+000	-1.17921035E+002	
-9.28224246E+000	-1.17935753E+002	
-9.26152916E+000	-1.17889313E+002	
-9.24081585E+000	-1.17834025E+002	
-9.22010255E+000	-1.17819915E+002	
-9.19938924E+000	-1.17850534E+002	
-9.17867594E+000	-1.17836460E+002	
-9.15796263E+000	-1.17841253E+002	
-9.13724932E+000	-1.17899925E+002	
-9.11653602E+000	-1.17903408E+002	
-9.09582271E+000	-1.17860424E+002	
-9.07510941E+000	-1.17864952E+002	
-9.05439610E+000	-1.17867270E+002	
-9.03368280E+000	-1.17742801E+002	
-9.01296949E+000	-1.17729607E+002	
-8.99225619E+000	-1.17731702E+002	
-8.97154288E+000	-1.17778337E+002	
-8.95082958E+000	-1.17793897E+002	
-8.93011627E+000	-1.17820687E+002	
-8.90940297E+000	-1.17845230E+002	
-8.88868966E+000	-1.17872070E+002	
-8.86797636E+000	-1.17865392E+002	
-8.84726305E+000	-1.17879760E+002	
-8.82654974E+000	-1.17867112E+002	
-8.80583644E+000	-1.17878782E+002	
-8.78512313E+000	-1.17879858E+002	
-8.76440983E+000	-1.17895724E+002	
-8.74369652E+000	-1.17954557E+002	
-8.72298322E+000	-1.17975785E+002	
-8.70226991E+000	-1.17911977E+002	
-8.68155661E+000	-1.17879831E+002	
-8.66084330E+000	-1.17912795E+002	
-8.64013000E+000	-1.17886547E+002	
-8.61941669E+000	-1.17844021E+002	
-8.59870339E+000	-1.17886398E+002	
-8.57799008E+000	-1.17892820E+002	
-8.55727678E+000	-1.17857697E+002	
-8.53656347E+000	-1.17977522E+002	
-8.51585017E+000	-1.18007180E+002	
-8.49513686E+000	-1.18010948E+002	
-8.47442355E+000	-1.18000224E+002	
-8.45371025E+000	-1.18030749E+002	
-8.43299694E+000	-1.18070576E+002	
-8.41228364E+000	-1.18030340E+002	
-8.39157033E+000	-1.18007788E+002	
-8.37085703E+000	-1.18054428E+002	
-8.35014372E+000	-1.18073738E+002	
-8.32943042E+000	-1.18095438E+002	
-8.30871711E+000	-1.18046902E+002	
-8.28800381E+000	-1.18085308E+002	
-8.26729050E+000	-1.18072225E+002	
-8.24657720E+000	-1.18069059E+002	
-8.22586389E+000	-1.18044487E+002	
-8.20515059E+000	-1.18089754E+002	
-8.18443728E+000	-1.18083714E+002	
-8.16372397E+000	-1.18068566E+002	
-8.14301067E+000	-1.18017711E+002	
-8.12229736E+000	-1.18034801E+002	
-8.10158406E+000	-1.18025535E+002	
-8.08087075E+000	-1.18009443E+002	
-8.06015745E+000	-1.17984238E+002	
-8.03944414E+000	-1.17926771E+002	
-8.01873084E+000	-1.17930329E+002	
-7.99801753E+000	-1.17920248E+002	
-7.97730423E+000	-1.17917274E+002	
-7.95659092E+000	-1.17889490E+002	
-7.93587762E+000	-1.17900895E+002	
-7.91516431E+000	-1.17946336E+002	
-7.89445101E+000	-1.17945349E+002	
-7.87373770E+000	-1.17919613E+002	
-7.85302439E+000	-1.17909996E+002	
-7.83231109E+000	-1.17888396E+002	
-7.81159778E+000	-1.17948368E+002	
-7.79088448E+000	-1.17977282E+002	
-7.77017117E+000	-1.17993009E+002	
-7.74945787E+000	-1.18006665E+002	
-7.72874456E+000	-1.18019881E+002	
-7.70803126E+000	-1.17980665E+002	
-7.68731795E+000	-1.18020210E+002	
-7.66660465E+000	-1.18015820E+002	
-7.64589134E+000	-1.18018995E+002	
-7.62517804E+000	-1.18000948E+002	
-7.60446473E+000	-1.17942473E+002	
-7.58375143E+000	-1.17965294E+002	
-7.56303812E+000	-1.17998170E+002	
-7.54232482E+000	-1.18064922E+002	
-7.52161151E+000	-1.18058645E+002	
-7.50089820E+000	-1.18070009E+002	
-7.48018490E+000	-1.18039397E+002	
-7.45947159E+000	-1.18079914E+002	
-7.43875829E+000	-1.18012939E+002	
-7.41804498E+000	-1.17921768E+002	
-7.39733168E+000	-1.17969869E+002	
-7.37661837E+000	-1.17986567E+002	
-7.35590507E+000	-1.17996073E+002	
-7.33519176E+000	-1.18014019E+002	
-7.31447846E+000	-1.18030633E+002	
-7.29376515E+000	-1.18002630E+002	
-7.27305185E+000	-1.17974680E+002	
-7.25233854E+000	-1.18005511E+002	
-7.23162524E+000	-1.18020990E+002	
-7.21091193E+000	-1.18017568E+002	
-7.19019862E+000	-1.18012176E+002	
-7.16948532E+000	-1.18058725E+002	
-7.14877201E+000	-1.18128861E+002	
-7.12805871E+000	-1.18187044E+002	
-7.10734540E+000	-1.18259396E+002	
-7.08663210E+000	-1.18293081E+002	
-7.06591879E+000	-1.18273544E+002	
-7.04520549E+000	-1.18255850E+002	
-7.02449218E+000	-1.18230455E+002	
-7.00377888E+000	-1.18194399E+002	
-6.98306557E+000	-1.18234366E+002	
-6.96235227E+000	-1.18191951E+002	
-6.94163896E+000	-1.18210297E+002	
-6.92092566E+000	-1.18276299E+002	
-6.90021235E+000	-1.18263238E+002	
-6.87949904E+000	-1.18227578E+002	
-6.85878574E+000	-1.18211852E+002	
-6.83807243E+000	-1.18237512E+002	
-6.81735913E+000	-1.18254527E+002	
-6.79664582E+000	-1.18213315E+002	
-6.77593252E+000	-1.18253919E+002	
-6.75521921E+000	-1.18207406E+002	
-6.73450591E+000	-1.18191382E+002	
-6.71379260E+000	-1.18164993E+002	
-6.69307930E+000	-1.18167494E+002	
-6.67236599E+000	-1.18126038E+002	
-6.65165269E+000	-1.18104267E+002	
-6.63093938E+000	-1.18122669E+002	
-6.61022608E+000	-1.18145867E+002	
-6.58951277E+000	-1.18137307E+002	
-6.56879947E+000	-1.18126153E+002	
-6.54808616E+000	-1.18114692E+002	
-6.52737285E+000	-1.18091352E+002	
-6.50665955E+000	-1.18116670E+002	
-6.48594624E+000	-1.18158576E+002	
-6.46523294E+000	-1.18202250E+002	
-6.44451963E+000	-1.18152911E+002	
-6.42380633E+000	-1.18117496E+002	
-6.40309302E+000	-1.18119573E+002	
-6.38237972E+000	-1.18095817E+002	
-6.36166641E+000	-1.18092831E+002	
-6.34095311E+000	-1.18091509E+002	
-6.32023980E+000	-1.18076580E+002	
-6.29952650E+000	-1.18079532E+002	
-6.27881319E+000	-1.18050610E+002	
-6.25809989E+000	-1.18059090E+002	
-6.23738658E+000	-1.18055419E+002	
-6.21667327E+000	-1.18041361E+002	
-6.19595997E+000	-1.18048990E+002	
-6.17524666E+000	-1.18040206E+002	
-6.15453336E+000	-1.18039304E+002	
-6.13382005E+000	-1.18020899E+002	
-6.11310675E+000	-1.18021955E+002	
-6.09239344E+000	-1.18021512E+002	
-6.07168014E+000	-1.17975427E+002	
-6.05096683E+000	-1.18045615E+002	
-6.03025353E+000	-1.18064625E+002	
-6.00954022E+000	-1.18055791E+002	
-5.98882692E+000	-1.18010517E+002	
-5.96811361E+000	-1.18021274E+002	
-5.94740031E+000	-1.18068023E+002	
-5.92668700E+000	-1.18111928E+002	
-5.90597369E+000	-1.18121182E+002	
-5.88526039E+000	-1.18167871E+002	
-5.86454708E+000	-1.18188033E+002	
-5.84383378E+000	-1.18151303E+002	
-5.82312047E+000	-1.18179926E+002	
-5.80240717E+000	-1.18160045E+002	
-5.78169386E+000	-1.18177697E+002	
-5.76098056E+000	-1.18179497E+002	
-5.74026725E+000	-1.18176695E+002	
-5.71955395E+000	-1.18217798E+002	
-5.69884064E+000	-1.18218717E+002	
-5.67812734E+000	-1.18249484E+002	
-5.65741403E+000	-1.18247228E+002	
-5.63670073E+000	-1.18256110E+002	
-5.61598742E+000	-1.18233693E+002	
-5.59527412E+000	-1.18199111E+002	
-5.57456081E+000	-1.18263066E+002	
-5.55384750E+000	-1.18173372E+002	
-5.53313420E+000	-1.18101663E+002	
-5.51242089E+000	-1.18105252E+002	
-5.49170759E+000	-1.18093167E+002	
-5.47099428E+000	-1.18062897E+002	
-5.45028098E+000	-1.18107865E+002	
-5.42956767E+000	-1.18138299E+002	
-5.40885437E+000	-1.18116481E+002	
-5.38814106E+000	-1.18101437E+002	
-5.36742776E+000	-1.18083220E+002	
-5.34671445E+000	-1.18120344E+002	
-5.32600115E+000	-1.18109647E+002	
-5.30528784E+000	-1.18124849E+002	
-5.28457454E+000	-1.18086304E+002	
-5.26386123E+000	-1.18072204E+002	
-5.24314792E+000	-1.18016342E+002	
-5.22243462E+000	-1.17987019E+002	
-5.20172131E+000	-1.17992309E+002	
-5.18100801E+000	-1.17945649E+002	
-5.16029470E+000	-1.17935788E+002	
-5.13958140E+000	-1.17895714E+002	
-5.11886809E+000	-1.17863866E+002	
-5.09815479E+000	-1.17865630E+002	
-5.07744148E+000	-1.17824552E+002	
-5.05672818E+000	-1.17889048E+002	
-5.03601487E+000	-1.17907374E+002	
-5.01530157E+000	-1.17948307E+002	
-4.99458826E+000	-1.17963870E+002	
-4.97387496E+000	-1.17913297E+002	
-4.95316165E+000	-1.17909934E+002	
-4.93244834E+000	-1.17873027E+002	
-4.91173504E+000	-1.17864345E+002	
-4.89102173E+000	-1.17863474E+002	
-4.87030843E+000	-1.17902686E+002	
-4.84959512E+000	-1.17886895E+002	
-4.82888182E+000	-1.17853351E+002	
-4.80816851E+000	-1.17836413E+002	
-4.78745521E+000	-1.17862505E+002	
-4.76674190E+000	-1.17896270E+002	
-4.74602860E+000	-1.17919142E+002	
-4.72531529E+000	-1.17966674E+002	
-4.70460199E+000	-1.17954765E+002	
-4.68388868E+000	-1.18000366E+002	
-4.66317538E+000	-1.17988445E+002	
-4.64246207E+000	-1.18023000E+002	
-4.62174877E+000	-1.18067661E+002	
-4.60103546E+000	-1.18111518E+002	
-4.58032215E+000	-1.18136932E+002	
-4.55960885E+000	-1.18106616E+002	
-4.53889554E+000	-1.18137982E+002	
-4.51818224E+000	-1.18063377E+002	
-4.49746893E+000	-1.18012142E+002	
-4.47675563E+000	-1.18061852E+002	
-4.45604232E+000	-1.18046991E+002	
-4.43532902E+000	-1.18039989E+002	
-4.41461571E+000	-1.18031613E+002	
-4.39390241E+000	-1.18054037E+002	
-4.37318910E+000	-1.18055947E+002	
-4.35247580E+000	-1.18027326E+002	
-4.33176249E+000	-1.18015403E+002	
-4.31104919E+000	-1.18015647E+002	
-4.29033588E+000	-1.18009039E+002	
-4.26962257E+000	-1.18006817E+002	
-4.24890927E+000	-1.18047750E+002	
-4.22819596E+000	-1.18060172E+002	
-4.20748266E+000	-1.18103965E+002	
-4.18676935E+000	-1.18057143E+002	
-4.16605605E+000	-1.18070192E+002	
-4.14534274E+000	-1.18088501E+002	
-4.12462944E+000	-1.18050216E+002	
-4.10391613E+000	-1.18039216E+002	
-4.08320283E+000	-1.18034055E+002	
-4.06248952E+000	-1.18027582E+002	
-4.04177622E+000	-1.17997095E+002	
-4.02106291E+000	-1.18036802E+002	
-4.00034961E+000	-1.18048615E+002	
-3.97963630E+000	-1.18018982E+002	
-3.95892299E+000	-1.18031436E+002	
-3.93820969E+000	-1.18012595E+002	
-3.91749638E+000	-1.18037664E+002	
-3.89678308E+000	-1.18002589E+002	
-3.87606977E+000	-1.17928607E+002	
-3.85535647E+000	-1.17933216E+002	
-3.83464316E+000	-1.17934316E+002	
-3.81392986E+000	-1.17925803E+002	
-3.79321655E+000	-1.17957323E+002	
-3.77250325E+000	-1.17888649E+002	
-3.75178994E+000	-1.17894017E+002	
-3.73107664E+000	-1.17906782E+002	
-3.71036333E+000	-1.17839907E+002	
-3.68965003E+000	-1.17866984E+002	
-3.66893672E+000	-1.17913957E+002	
-3.64822342E+000	-1.17876563E+002	
-3.62751011E+000	-1.17896080E+002	
-3.60679680E+000	-1.17897530E+002	
-3.58608350E+000	-1.17896012E+002	
-3.56537019E+000	-1.17920197E+002	
-3.54465689E+000	-1.17932082E+002	
-3.52394358E+000	-1.17959650E+002	
-3.50323028E+000	-1.17996092E+002	
-3.48251697E+000	-1.18026435E+002	
-3.46180367E+000	-1.18051175E+002	
-3.44109036E+000	-1.18067518E+002	
-3.42037706E+000	-1.18097541E+002	
-3.39966375E+000	-1.18129519E+002	
-3.37895045E+000	-1.18179583E+002	
-3.35823714E+000	-1.18170305E+002	
-3.33752384E+000	-1.18172802E+002	
-3.31681053E+000	-1.18191048E+002	
-3.29609722E+000	-1.18157955E+002	
-3.27538392E+000	-1.18179259E+002	
-3.25467061E+000	-1.18187390E+002	
-3.23395731E+000	-1.18169406E+002	
-3.21324400E+000	-1.18194269E+002	
-3.19253070E+000	-1.18194198E+002	
-3.17181739E+000	-1.18170250E+002	
-3.15110409E+000	-1.18145561E+002	
-3.13039078E+000	-1.18129625E+002	
-3.10967748E+000	-1.18164977E+002	
-3.08896417E+000	-1.18150665E+002	
-3.06825087E+000	-1.18140853E+002	
-3.04753756E+000	-1.18155167E+002	
-3.02682426E+000	-1.18119065E+002	
-3.00611095E+000	-1.18049907E+002	
-2.98539764E+000	-1.18092592E+002	
-2.96468434E+000	-1.18055016E+002	
-2.94397103E+000	-1.18026465E+002	
-2.92325773E+000	-1.17982593E+002	
-2.90254442E+000	-1.17978977E+002	
-2.88183112E+000	-1.17986248E+002	
-2.86111781E+000	-1.18031774E+002	
-2.84040451E+000	-1.18073450E+002	
-2.81969120E+000	-1.18105165E+002	
-2.79897790E+000	-1.18169039E+002	
-2.77826459E+000	-1.18126165E+002	
-2.75755129E+000	-1.18099919E+002	
-2.73683798E+000	-1.18112502E+002	
-2.71612468E+000	-1.18067776E+002	
-2.69541137E+000	-1.18046543E+002	
-2.67469807E+000	-1.18107007E+002	
-2.65398476E+000	-1.18130233E+002	
-2.63327145E+000	-1.18126938E+002	
-2.61255815E+000	-1.18069500E+002	
-2.59184484E+000	-1.18073874E+002	
-2.57113154E+000	-1.18066365E+002	
-2.55041823E+000	-1.18064449E+002	
-2.52970493E+000	-1.18118211E+002	
-2.50899162E+000	-1.18190169E+002	
-2.48827832E+000	-1.18169711E+002	
-2.46756501E+000	-1.18170377E+002	
-2.44685171E+000	-1.18175257E+002	
-2.42613840E+000	-1.18201379E+002	
-2.40542510E+000	-1.18215778E+002	
-2.38471179E+000	-1.18198770E+002	
-2.36399849E+000	-1.18180253E+002	
-2.34328518E+000	-1.18131402E+002	
-2.32257187E+000	-1.18081431E+002	
-2.30185857E+000	-1.18007822E+002	
-2.28114526E+000	-1.18024518E+002	
-2.26043196E+000	-1.18100359E+002	
-2.23971865E+000	-1.18089995E+002	
-2.21900535E+000	-1.18143031E+002	
-2.19829204E+000	-1.18166845E+002	
-2.17757874E+000	-1.18125905E+002	
-2.15686543E+000	-1.18112897E+002	
-2.13615213E+000	-1.18167117E+002	
-2.11543882E+000	-1.18172986E+002	
-2.09472552E+000	-1.18181611E+002	
-2.07401221E+000	-1.18152486E+002	
-2.05329891E+000	-1.18099131E+002	
-2.03258560E+000	-1.18103614E+002	
-2.01187229E+000	-1.18096436E+002	
-1.99115899E+000	-1.18099174E+002	
-1.97044568E+000	-1.18029735E+002	
-1.94973238E+000	-1.18047784E+002	
-1.92901907E+000	-1.18033316E+002	
-1.90830577E+000	-1.17987983E+002	
-1.88759246E+000	-1.17986844E+002	
-1.86687916E+000	-1.18021633E+002	
-1.84616585E+000	-1.17995658E+002	
-1.82545255E+000	-1.18074230E+002	
-1.80473924E+000	-1.18080437E+002	
-1.78402594E+000	-1.18121224E+002	
-1.76331263E+000	-1.18120223E+002	
-1.74259933E+000	-1.18075329E+002	
-1.72188602E+000	-1.18077495E+002	
-1.70117272E+000	-1.18148112E+002	
-1.68045941E+000	-1.18172749E+002	
-1.65974610E+000	-1.18132708E+002	
-1.63903280E+000	-1.18093313E+002	
-1.61831949E+000	-1.18150382E+002	
-1.59760619E+000	-1.18165391E+002	
-1.57689288E+000	-1.18180719E+002	
-1.55617958E+000	-1.18239318E+002	
-1.53546627E+000	-1.18224776E+002	
-1.51475297E+000	-1.18229319E+002	
-1.49403966E+000	-1.18203547E+002	
-1.47332636E+000	-1.18258975E+002	
-1.45261305E+000	-1.18224241E+002	
-1.43189975E+000	-1.18218558E+002	
-1.41118644E+000	-1.18208515E+002	
-1.39047314E+000	-1.18235488E+002	
-1.36975983E+000	-1.18195711E+002	
-1.34904652E+000	-1.18193814E+002	
-1.32833322E+000	-1.18150060E+002	
-1.30761991E+000	-1.18110097E+002	
-1.28690661E+000	-1.18118416E+002	
-1.26619330E+000	-1.18108095E+002	
-1.24548000E+000	-1.18153137E+002	
-1.22476669E+000	-1.18170856E+002	
-1.20405339E+000	-1.18070297E+002	
-1.18334008E+000	-1.18061028E+002	
-1.16262678E+000	-1.18125901E+002	
-1.14191347E+000	-1.18151657E+002	
-1.12120017E+000	-1.18142236E+002	
-1.10048686E+000	-1.18115602E+002	
-1.07977356E+000	-1.18120962E+002	
-1.05906025E+000	-1.18156231E+002	
-1.03834694E+000	-1.18142122E+002	
-1.01763364E+000	-1.18079038E+002	
-9.96920334E-001	-1.17990924E+002	
-9.76207029E-001	-1.17950301E+002	
-9.55493724E-001	-1.17971126E+002	
-9.34780418E-001	-1.17985972E+002	
-9.14067113E-001	-1.18031578E+002	
-8.93353808E-001	-1.18011042E+002	
-8.72640502E-001	-1.17990574E+002	
-8.51927197E-001	-1.18025727E+002	
-8.31213892E-001	-1.18053193E+002	
-8.10500586E-001	-1.18110872E+002	
-7.89787281E-001	-1.18126391E+002	
-7.69073976E-001	-1.18136019E+002	
-7.48360671E-001	-1.18120918E+002	
-7.27647365E-001	-1.18112284E+002	
-7.06934060E-001	-1.18137746E+002	
-6.86220755E-001	-1.18156511E+002	
-6.65507449E-001	-1.18179740E+002	
-6.44794144E-001	-1.18177308E+002	
-6.24080839E-001	-1.18141390E+002	
-6.03367533E-001	-1.18138058E+002	
-5.82654228E-001	-1.18113045E+002	
-5.61940923E-001	-1.18068335E+002	
-5.41227617E-001	-1.18030053E+002	
-5.20514312E-001	-1.18059336E+002	
-4.99801007E-001	-1.18164334E+002	
-4.79087701E-001	-1.18240849E+002	
-4.58374396E-001	-1.18267530E+002	
-4.37661091E-001	-1.18229107E+002	
-4.16947785E-001	-1.18204572E+002	
-3.96234480E-001	-1.18213065E+002	
-3.75521175E-001	-1.18218592E+002	
-3.54807869E-001	-1.18222101E+002	
-3.34094564E-001	-1.18225979E+002	
-3.13381259E-001	-1.18234767E+002	
-2.92667954E-001	-1.18143952E+002	
-2.71954648E-001	-1.18041762E+002	
-2.51241343E-001	-8.59928218E+001	
-2.30528038E-001	-8.56525345E+001	
-2.09814732E-001	-8.56524912E+001	
-1.89101427E-001	-8.56524924E+001	
-1.68388122E-001	-8.56524870E+001	
-1.47674816E-001	-8.56524607E+001	
-1.26961511E-001	-8.56523937E+001	
-1.06248206E-001	-8.56523437E+001	
-8.55349003E-002	-8.56523603E+001	
-6.48215950E-002	-8.56523902E+001	
-4.41082897E-002	-8.56524499E+001	
-2.33949844E-002	-8.56524837E+001	
-2.68167905E-003	-8.56525048E+001	
1.80316263E-002	-8.56525005E+001	
3.87449316E-002	-8.56525133E+001	
5.94582369E-002	-8.56525603E+001	
8.01715422E-002	-8.56525868E+001	
1.00884848E-001	-8.56526089E+001	
1.21598153E-001	-8.56526522E+001	
1.42311458E-001	-8.56526662E+001	
1.63024763E-001	-8.56526763E+001	
1.83738069E-001	-8.56526671E+001	
2.04451374E-001	-8.56526929E+001	
2.25164679E-001	-8.56527425E+001	
2.45877985E-001	-9.21510656E+001	
2.66591290E-001	-1.18484598E+002	
2.87304595E-001	-1.18602272E+002	
3.08017901E-001	-1.18645856E+002	
3.28731206E-001	-1.18600269E+002	
3.49444511E-001	-1.18631468E+002	
3.70157817E-001	-1.18784838E+002	
3.90871122E-001	-1.18916512E+002	
4.11584427E-001	-1.18952203E+002	
4.32297733E-001	-1.18978764E+002	
4.53011038E-001	-1.18988622E+002	
4.73724343E-001	-1.18961190E+002	
4.94437649E-001	-1.18917056E+002	
5.15150954E-001	-1.18936174E+002	
5.35864259E-001	-1.18893064E+002	
5.56577565E-001	-1.18836127E+002	
5.77290870E-001	-1.18866653E+002	
5.98004175E-001	-1.18894443E+002	
6.18717481E-001	-1.18851859E+002	
6.39430786E-001	-1.18825821E+002	
6.60144091E-001	-1.18854796E+002	
6.80857396E-001	-1.18893218E+002	
7.01570702E-001	-1.18927929E+002	
7.22284007E-001	-1.18944966E+002	
7.42997312E-001	-1.18940325E+002	
7.63710618E-001	-1.18918101E+002	
7.84423923E-001	-1.18902955E+002	
8.05137228E-001	-1.18899851E+002	
8.25850534E-001	-1.18933044E+002	
8.46563839E-001	-1.18933496E+002	
8.67277144E-001	-1.18964188E+002	
8.87990450E-001	-1.18991578E+002	
9.08703755E-001	-1.18965572E+002	
9.29417060E-001	-1.18942082E+002	
9.50130366E-001	-1.18945172E+002	
9.70843671E-001	-1.18943667E+002	
9.91556976E-001	-1.19013623E+002	
1.01227028E+000	-1.19006870E+002	
1.03298359E+000	-1.19048261E+002	
1.05369689E+000	-1.19126797E+002	
1.07441020E+000	-1.19119738E+002	
1.09512350E+000	-1.19070932E+002	
1.11583681E+000	-1.19047301E+002	
1.13655011E+000	-1.19089240E+002	
1.15726342E+000	-1.19083745E+002	
1.17797672E+000	-1.19098203E+002	
1.19869003E+000	-1.19104596E+002	
1.21940333E+000	-1.19118827E+002	
1.24011664E+000	-1.19122146E+002	
1.26082995E+000	-1.19086315E+002	
1.28154325E+000	-1.19121320E+002	
1.30225656E+000	-1.19152128E+002	
1.32296986E+000	-1.19135496E+002	
1.34368317E+000	-1.19202833E+002	
1.36439647E+000	-1.19230273E+002	
1.38510978E+000	-1.19260976E+002	
1.40582308E+000	-1.19304490E+002	
1.42653639E+000	-1.19301899E+002	
1.44724969E+000	-1.19268040E+002	
1.46796300E+000	-1.19277769E+002	
1.48867630E+000	-1.19270277E+002	
1.50938961E+000	-1.19263773E+002	
1.53010291E+000	-1.19233147E+002	
1.55081622E+000	-1.19168629E+002	
1.57152953E+000	-1.19112433E+002	
