Acquired on 8/13/2021 at 11:30:58
Calibrated on 8/13/2021 at 11:06:07
Device Descriptor:  [none]
Scan Range (nm):  1539.624  --  1560.517
Measurement Type:  Reflection
Group Index:  1.500
Gain:  24 dB
Domain:  Time
Spatial Resolution (mm):  50.000000
Frequency domain window was applied to measurement data.
Number of Data Points (in this file):  16384
NOTE: Data stored in this file is decimated by a factor of 64.

Time (ns)	Amplitude (dB)	
-1.00072081E+001	-1.20520976E+002	
-9.98649484E+000	-1.20189234E+002	
-9.96578154E+000	-1.19836953E+002	
-9.94506823E+000	-1.19572240E+002	
-9.92435493E+000	-1.19337980E+002	
-9.90364162E+000	-1.19095209E+002	
-9.88292832E+000	-1.18882805E+002	
-9.86221501E+000	-1.18671709E+002	
-9.84150171E+000	-1.18471050E+002	
-9.82078840E+000	-1.18290120E+002	
-9.80007509E+000	-1.18092411E+002	
-9.77936179E+000	-1.17895859E+002	
-9.75864848E+000	-1.17834410E+002	
-9.73793518E+000	-1.17842870E+002	
-9.71722187E+000	-1.17840772E+002	
-9.69650857E+000	-1.17845410E+002	
-9.67579526E+000	-1.17903393E+002	
-9.65508196E+000	-1.17889379E+002	
-9.63436865E+000	-1.17833197E+002	
-9.61365535E+000	-1.17837298E+002	
-9.59294204E+000	-1.17871087E+002	
-9.57222874E+000	-1.17897393E+002	
-9.55151543E+000	-1.17911180E+002	
-9.53080213E+000	-1.17900263E+002	
-9.51008882E+000	-1.17927657E+002	
-9.48937552E+000	-1.17952245E+002	
-9.46866221E+000	-1.17952405E+002	
-9.44794890E+000	-1.17921580E+002	
-9.42723560E+000	-1.17876841E+002	
-9.40652229E+000	-1.17875020E+002	
-9.38580899E+000	-1.17850455E+002	
-9.36509568E+000	-1.17839372E+002	
-9.34438238E+000	-1.17806367E+002	
-9.32366907E+000	-1.17780164E+002	
-9.30295577E+000	-1.17772515E+002	
-9.28224246E+000	-1.17785788E+002	
-9.26152916E+000	-1.17738471E+002	
-9.24081585E+000	-1.17679859E+002	
-9.22010255E+000	-1.17667460E+002	
-9.19938924E+000	-1.17705201E+002	
-9.17867594E+000	-1.17690758E+002	
-9.15796263E+000	-1.17690547E+002	
-9.13724932E+000	-1.17754869E+002	
-9.11653602E+000	-1.17759509E+002	
-9.09582271E+000	-1.17708684E+002	
-9.07510941E+000	-1.17714975E+002	
-9.05439610E+000	-1.17715571E+002	
-9.03368280E+000	-1.17591569E+002	
-9.01296949E+000	-1.17579188E+002	
-8.99225619E+000	-1.17582835E+002	
-8.97154288E+000	-1.17630369E+002	
-8.95082958E+000	-1.17647264E+002	
-8.93011627E+000	-1.17676210E+002	
-8.90940297E+000	-1.17695656E+002	
-8.88868966E+000	-1.17721347E+002	
-8.86797636E+000	-1.17713640E+002	
-8.84726305E+000	-1.17727598E+002	
-8.82654974E+000	-1.17710750E+002	
-8.80583644E+000	-1.17728791E+002	
-8.78512313E+000	-1.17734711E+002	
-8.76440983E+000	-1.17754599E+002	
-8.74369652E+000	-1.17820301E+002	
-8.72298322E+000	-1.17839611E+002	
-8.70226991E+000	-1.17768812E+002	
-8.68155661E+000	-1.17742402E+002	
-8.66084330E+000	-1.17779684E+002	
-8.64013000E+000	-1.17749298E+002	
-8.61941669E+000	-1.17708936E+002	
-8.59870339E+000	-1.17752442E+002	
-8.57799008E+000	-1.17749580E+002	
-8.55727678E+000	-1.17712301E+002	
-8.53656347E+000	-1.17834480E+002	
-8.51585017E+000	-1.17861386E+002	
-8.49513686E+000	-1.17871685E+002	
-8.47442355E+000	-1.17860700E+002	
-8.45371025E+000	-1.17896245E+002	
-8.43299694E+000	-1.17936043E+002	
-8.41228364E+000	-1.17899295E+002	
-8.39157033E+000	-1.17870066E+002	
-8.37085703E+000	-1.17918688E+002	
-8.35014372E+000	-1.17937202E+002	
-8.32943042E+000	-1.17959491E+002	
-8.30871711E+000	-1.17912393E+002	
-8.28800381E+000	-1.17943006E+002	
-8.26729050E+000	-1.17916206E+002	
-8.24657720E+000	-1.17902133E+002	
-8.22586389E+000	-1.17877326E+002	
-8.20515059E+000	-1.17924119E+002	
-8.18443728E+000	-1.17918806E+002	
-8.16372397E+000	-1.17904738E+002	
-8.14301067E+000	-1.17857728E+002	
-8.12229736E+000	-1.17874263E+002	
-8.10158406E+000	-1.17867985E+002	
-8.08087075E+000	-1.17863396E+002	
-8.06015745E+000	-1.17844845E+002	
-8.03944414E+000	-1.17789562E+002	
-8.01873084E+000	-1.17801768E+002	
-7.99801753E+000	-1.17778798E+002	
-7.97730423E+000	-1.17776348E+002	
-7.95659092E+000	-1.17745628E+002	
-7.93587762E+000	-1.17752820E+002	
-7.91516431E+000	-1.17791068E+002	
-7.89445101E+000	-1.17790144E+002	
-7.87373770E+000	-1.17766985E+002	
-7.85302439E+000	-1.17761345E+002	
-7.83231109E+000	-1.17736892E+002	
-7.81159778E+000	-1.17792728E+002	
-7.79088448E+000	-1.17820909E+002	
-7.77017117E+000	-1.17849711E+002	
-7.74945787E+000	-1.17868385E+002	
-7.72874456E+000	-1.17884491E+002	
-7.70803126E+000	-1.17839060E+002	
-7.68731795E+000	-1.17870550E+002	
-7.66660465E+000	-1.17862796E+002	
-7.64589134E+000	-1.17863614E+002	
-7.62517804E+000	-1.17842283E+002	
-7.60446473E+000	-1.17779800E+002	
-7.58375143E+000	-1.17800758E+002	
-7.56303812E+000	-1.17832752E+002	
-7.54232482E+000	-1.17900685E+002	
-7.52161151E+000	-1.17885214E+002	
-7.50089820E+000	-1.17903537E+002	
-7.48018490E+000	-1.17869685E+002	
-7.45947159E+000	-1.17908194E+002	
-7.43875829E+000	-1.17840195E+002	
-7.41804498E+000	-1.17754465E+002	
-7.39733168E+000	-1.17807028E+002	
-7.37661837E+000	-1.17816917E+002	
-7.35590507E+000	-1.17823243E+002	
-7.33519176E+000	-1.17844848E+002	
-7.31447846E+000	-1.17866106E+002	
-7.29376515E+000	-1.17836456E+002	
-7.27305185E+000	-1.17805496E+002	
-7.25233854E+000	-1.17838139E+002	
-7.23162524E+000	-1.17854049E+002	
-7.21091193E+000	-1.17854471E+002	
-7.19019862E+000	-1.17859054E+002	
-7.16948532E+000	-1.17905947E+002	
-7.14877201E+000	-1.17973573E+002	
-7.12805871E+000	-1.18029549E+002	
-7.10734540E+000	-1.18104895E+002	
-7.08663210E+000	-1.18133746E+002	
-7.06591879E+000	-1.18109950E+002	
-7.04520549E+000	-1.18090404E+002	
-7.02449218E+000	-1.18063083E+002	
-7.00377888E+000	-1.18028946E+002	
-6.98306557E+000	-1.18071038E+002	
-6.96235227E+000	-1.18021494E+002	
-6.94163896E+000	-1.18048821E+002	
-6.92092566E+000	-1.18124618E+002	
-6.90021235E+000	-1.18110450E+002	
-6.87949904E+000	-1.18076996E+002	
-6.85878574E+000	-1.18060760E+002	
-6.83807243E+000	-1.18090954E+002	
-6.81735913E+000	-1.18105403E+002	
-6.79664582E+000	-1.18065123E+002	
-6.77593252E+000	-1.18108693E+002	
-6.75521921E+000	-1.18064832E+002	
-6.73450591E+000	-1.18050188E+002	
-6.71379260E+000	-1.18016309E+002	
-6.69307930E+000	-1.18009662E+002	
-6.67236599E+000	-1.17958644E+002	
-6.65165269E+000	-1.17936191E+002	
-6.63093938E+000	-1.17957831E+002	
-6.61022608E+000	-1.17980961E+002	
-6.58951277E+000	-1.17973575E+002	
-6.56879947E+000	-1.17960319E+002	
-6.54808616E+000	-1.17947887E+002	
-6.52737285E+000	-1.17929254E+002	
-6.50665955E+000	-1.17959881E+002	
-6.48594624E+000	-1.18002083E+002	
-6.46523294E+000	-1.18048325E+002	
-6.44451963E+000	-1.17979975E+002	
-6.42380633E+000	-1.17938668E+002	
-6.40309302E+000	-1.17934609E+002	
-6.38237972E+000	-1.17908603E+002	
-6.36166641E+000	-1.17907537E+002	
-6.34095311E+000	-1.17905920E+002	
-6.32023980E+000	-1.17892555E+002	
-6.29952650E+000	-1.17898676E+002	
-6.27881319E+000	-1.17872694E+002	
-6.25809989E+000	-1.17879467E+002	
-6.23738658E+000	-1.17869733E+002	
-6.21667327E+000	-1.17857370E+002	
-6.19595997E+000	-1.17873698E+002	
-6.17524666E+000	-1.17869899E+002	
-6.15453336E+000	-1.17870508E+002	
-6.13382005E+000	-1.17848902E+002	
-6.11310675E+000	-1.17851377E+002	
-6.09239344E+000	-1.17850242E+002	
-6.07168014E+000	-1.17804400E+002	
-6.05096683E+000	-1.17873824E+002	
-6.03025353E+000	-1.17892660E+002	
-6.00954022E+000	-1.17878773E+002	
-5.98882692E+000	-1.17828661E+002	
-5.96811361E+000	-1.17839615E+002	
-5.94740031E+000	-1.17892560E+002	
-5.92668700E+000	-1.17930208E+002	
-5.90597369E+000	-1.17945086E+002	
-5.88526039E+000	-1.18000141E+002	
-5.86454708E+000	-1.18030373E+002	
-5.84383378E+000	-1.17998158E+002	
-5.82312047E+000	-1.18022746E+002	
-5.80240717E+000	-1.18007294E+002	
-5.78169386E+000	-1.18019524E+002	
-5.76098056E+000	-1.18022307E+002	
-5.74026725E+000	-1.18028544E+002	
-5.71955395E+000	-1.18077423E+002	
-5.69884064E+000	-1.18081650E+002	
-5.67812734E+000	-1.18120338E+002	
-5.65741403E+000	-1.18123397E+002	
-5.63670073E+000	-1.18135712E+002	
-5.61598742E+000	-1.18107114E+002	
-5.59527412E+000	-1.18067376E+002	
-5.57456081E+000	-1.18136701E+002	
-5.55384750E+000	-1.18047463E+002	
-5.53313420E+000	-1.17976775E+002	
-5.51242089E+000	-1.17990284E+002	
-5.49170759E+000	-1.17986035E+002	
-5.47099428E+000	-1.17959163E+002	
-5.45028098E+000	-1.18016695E+002	
-5.42956767E+000	-1.18055602E+002	
-5.40885437E+000	-1.18043343E+002	
-5.38814106E+000	-1.18028057E+002	
-5.36742776E+000	-1.18002560E+002	
-5.34671445E+000	-1.18030885E+002	
-5.32600115E+000	-1.18018857E+002	
-5.30528784E+000	-1.18031435E+002	
-5.28457454E+000	-1.17999352E+002	
-5.26386123E+000	-1.17988137E+002	
-5.24314792E+000	-1.17928311E+002	
-5.22243462E+000	-1.17896121E+002	
-5.20172131E+000	-1.17898960E+002	
-5.18100801E+000	-1.17844264E+002	
-5.16029470E+000	-1.17832585E+002	
-5.13958140E+000	-1.17791700E+002	
-5.11886809E+000	-1.17769106E+002	
-5.09815479E+000	-1.17778900E+002	
-5.07744148E+000	-1.17740607E+002	
-5.05672818E+000	-1.17810825E+002	
-5.03601487E+000	-1.17826438E+002	
-5.01530157E+000	-1.17857538E+002	
-4.99458826E+000	-1.17870859E+002	
-4.97387496E+000	-1.17820260E+002	
-4.95316165E+000	-1.17814472E+002	
-4.93244834E+000	-1.17770368E+002	
-4.91173504E+000	-1.17752422E+002	
-4.89102173E+000	-1.17748842E+002	
-4.87030843E+000	-1.17782518E+002	
-4.84959512E+000	-1.17769114E+002	
-4.82888182E+000	-1.17737126E+002	
-4.80816851E+000	-1.17728475E+002	
-4.78745521E+000	-1.17750988E+002	
-4.76674190E+000	-1.17782412E+002	
-4.74602860E+000	-1.17805545E+002	
-4.72531529E+000	-1.17852825E+002	
-4.70460199E+000	-1.17838211E+002	
-4.68388868E+000	-1.17881693E+002	
-4.66317538E+000	-1.17874095E+002	
-4.64246207E+000	-1.17903683E+002	
-4.62174877E+000	-1.17943073E+002	
-4.60103546E+000	-1.17981717E+002	
-4.58032215E+000	-1.18004435E+002	
-4.55960885E+000	-1.17972851E+002	
-4.53889554E+000	-1.18003859E+002	
-4.51818224E+000	-1.17929918E+002	
-4.49746893E+000	-1.17881903E+002	
-4.47675563E+000	-1.17930629E+002	
-4.45604232E+000	-1.17913195E+002	
-4.43532902E+000	-1.17912299E+002	
-4.41461571E+000	-1.17902624E+002	
-4.39390241E+000	-1.17920305E+002	
-4.37318910E+000	-1.17922825E+002	
-4.35247580E+000	-1.17898281E+002	
-4.33176249E+000	-1.17885072E+002	
-4.31104919E+000	-1.17873512E+002	
-4.29033588E+000	-1.17868508E+002	
-4.26962257E+000	-1.17857851E+002	
-4.24890927E+000	-1.17901507E+002	
-4.22819596E+000	-1.17913702E+002	
-4.20748266E+000	-1.17959223E+002	
-4.18676935E+000	-1.17911921E+002	
-4.16605605E+000	-1.17930089E+002	
-4.14534274E+000	-1.17950078E+002	
-4.12462944E+000	-1.17913977E+002	
-4.10391613E+000	-1.17905148E+002	
-4.08320283E+000	-1.17896500E+002	
-4.06248952E+000	-1.17886230E+002	
-4.04177622E+000	-1.17853649E+002	
-4.02106291E+000	-1.17894721E+002	
-4.00034961E+000	-1.17902835E+002	
-3.97963630E+000	-1.17866462E+002	
-3.95892299E+000	-1.17879168E+002	
-3.93820969E+000	-1.17859785E+002	
-3.91749638E+000	-1.17882290E+002	
-3.89678308E+000	-1.17848822E+002	
-3.87606977E+000	-1.17770687E+002	
-3.85535647E+000	-1.17773290E+002	
-3.83464316E+000	-1.17769881E+002	
-3.81392986E+000	-1.17766887E+002	
-3.79321655E+000	-1.17794559E+002	
-3.77250325E+000	-1.17729591E+002	
-3.75178994E+000	-1.17729034E+002	
-3.73107664E+000	-1.17738837E+002	
-3.71036333E+000	-1.17669285E+002	
-3.68965003E+000	-1.17700365E+002	
-3.66893672E+000	-1.17739310E+002	
-3.64822342E+000	-1.17702406E+002	
-3.62751011E+000	-1.17715237E+002	
-3.60679680E+000	-1.17718987E+002	
-3.58608350E+000	-1.17721029E+002	
-3.56537019E+000	-1.17746488E+002	
-3.54465689E+000	-1.17761715E+002	
-3.52394358E+000	-1.17787778E+002	
-3.50323028E+000	-1.17825019E+002	
-3.48251697E+000	-1.17858584E+002	
-3.46180367E+000	-1.17881359E+002	
-3.44109036E+000	-1.17895408E+002	
-3.42037706E+000	-1.17928902E+002	
-3.39966375E+000	-1.17965656E+002	
-3.37895045E+000	-1.18018312E+002	
-3.35823714E+000	-1.18015690E+002	
-3.33752384E+000	-1.18019293E+002	
-3.31681053E+000	-1.18035687E+002	
-3.29609722E+000	-1.18007207E+002	
-3.27538392E+000	-1.18027352E+002	
-3.25467061E+000	-1.18036671E+002	
-3.23395731E+000	-1.18019989E+002	
-3.21324400E+000	-1.18045410E+002	
-3.19253070E+000	-1.18043855E+002	
-3.17181739E+000	-1.18017100E+002	
-3.15110409E+000	-1.17988290E+002	
-3.13039078E+000	-1.17979514E+002	
-3.10967748E+000	-1.18013062E+002	
-3.08896417E+000	-1.17995208E+002	
-3.06825087E+000	-1.17982917E+002	
-3.04753756E+000	-1.17994524E+002	
-3.02682426E+000	-1.17959601E+002	
-3.00611095E+000	-1.17891679E+002	
-2.98539764E+000	-1.17934240E+002	
-2.96468434E+000	-1.17899650E+002	
-2.94397103E+000	-1.17876437E+002	
-2.92325773E+000	-1.17830342E+002	
-2.90254442E+000	-1.17828007E+002	
-2.88183112E+000	-1.17840613E+002	
-2.86111781E+000	-1.17886814E+002	
-2.84040451E+000	-1.17931587E+002	
-2.81969120E+000	-1.17966196E+002	
-2.79897790E+000	-1.18032377E+002	
-2.77826459E+000	-1.17984252E+002	
-2.75755129E+000	-1.17963248E+002	
-2.73683798E+000	-1.17972971E+002	
-2.71612468E+000	-1.17928238E+002	
-2.69541137E+000	-1.17907100E+002	
-2.67469807E+000	-1.17970215E+002	
-2.65398476E+000	-1.17997221E+002	
-2.63327145E+000	-1.17986792E+002	
-2.61255815E+000	-1.17931622E+002	
-2.59184484E+000	-1.17936045E+002	
-2.57113154E+000	-1.17925980E+002	
-2.55041823E+000	-1.17926422E+002	
-2.52970493E+000	-1.17979565E+002	
-2.50899162E+000	-1.18046729E+002	
-2.48827832E+000	-1.18021944E+002	
-2.46756501E+000	-1.18023902E+002	
-2.44685171E+000	-1.18028963E+002	
-2.42613840E+000	-1.18054708E+002	
-2.40542510E+000	-1.18066384E+002	
-2.38471179E+000	-1.18047311E+002	
-2.36399849E+000	-1.18020464E+002	
-2.34328518E+000	-1.17970997E+002	
-2.32257187E+000	-1.17922502E+002	
-2.30185857E+000	-1.17846008E+002	
-2.28114526E+000	-1.17872387E+002	
-2.26043196E+000	-1.17944584E+002	
-2.23971865E+000	-1.17933736E+002	
-2.21900535E+000	-1.17985324E+002	
-2.19829204E+000	-1.18007495E+002	
-2.17757874E+000	-1.17968286E+002	
-2.15686543E+000	-1.17960772E+002	
-2.13615213E+000	-1.18018764E+002	
-2.11543882E+000	-1.18019735E+002	
-2.09472552E+000	-1.18032354E+002	
-2.07401221E+000	-1.18002526E+002	
-2.05329891E+000	-1.17956898E+002	
-2.03258560E+000	-1.17968398E+002	
-2.01187229E+000	-1.17962446E+002	
-1.99115899E+000	-1.17964102E+002	
-1.97044568E+000	-1.17896341E+002	
-1.94973238E+000	-1.17909929E+002	
-1.92901907E+000	-1.17896589E+002	
-1.90830577E+000	-1.17850774E+002	
-1.88759246E+000	-1.17849378E+002	
-1.86687916E+000	-1.17888522E+002	
-1.84616585E+000	-1.17857014E+002	
-1.82545255E+000	-1.17934720E+002	
-1.80473924E+000	-1.17940814E+002	
-1.78402594E+000	-1.17978267E+002	
-1.76331263E+000	-1.17975404E+002	
-1.74259933E+000	-1.17923811E+002	
-1.72188602E+000	-1.17925069E+002	
-1.70117272E+000	-1.17996469E+002	
-1.68045941E+000	-1.18017559E+002	
-1.65974610E+000	-1.17970887E+002	
-1.63903280E+000	-1.17930055E+002	
-1.61831949E+000	-1.17995943E+002	
-1.59760619E+000	-1.18005775E+002	
-1.57689288E+000	-1.18016780E+002	
-1.55617958E+000	-1.18071942E+002	
-1.53546627E+000	-1.18054972E+002	
-1.51475297E+000	-1.18061843E+002	
-1.49403966E+000	-1.18035600E+002	
-1.47332636E+000	-1.18087851E+002	
-1.45261305E+000	-1.18059259E+002	
-1.43189975E+000	-1.18054434E+002	
-1.41118644E+000	-1.18045496E+002	
-1.39047314E+000	-1.18073286E+002	
-1.36975983E+000	-1.18032912E+002	
-1.34904652E+000	-1.18036321E+002	
-1.32833322E+000	-1.17984679E+002	
-1.30761991E+000	-1.17938050E+002	
-1.28690661E+000	-1.17945580E+002	
-1.26619330E+000	-1.17936759E+002	
-1.24548000E+000	-1.17992494E+002	
-1.22476669E+000	-1.18016239E+002	
-1.20405339E+000	-1.17917668E+002	
-1.18334008E+000	-1.17910756E+002	
-1.16262678E+000	-1.17974532E+002	
-1.14191347E+000	-1.18004117E+002	
-1.12120017E+000	-1.17994637E+002	
-1.10048686E+000	-1.17966431E+002	
-1.07977356E+000	-1.17981445E+002	
-1.05906025E+000	-1.18022730E+002	
-1.03834694E+000	-1.18000481E+002	
-1.01763364E+000	-1.17936103E+002	
-9.96920334E-001	-1.17854980E+002	
-9.76207029E-001	-1.17818163E+002	
-9.55493724E-001	-1.17834005E+002	
-9.34780418E-001	-1.17850214E+002	
-9.14067113E-001	-1.17899767E+002	
-8.93353808E-001	-1.17877711E+002	
-8.72640502E-001	-1.17855112E+002	
-8.51927197E-001	-1.17885976E+002	
-8.31213892E-001	-1.17919747E+002	
-8.10500586E-001	-1.17982542E+002	
-7.89787281E-001	-1.18002517E+002	
-7.69073976E-001	-1.18012599E+002	
-7.48360671E-001	-1.17996822E+002	
-7.27647365E-001	-1.17986739E+002	
-7.06934060E-001	-1.18018830E+002	
-6.86220755E-001	-1.18045247E+002	
-6.65507449E-001	-1.18071761E+002	
-6.44794144E-001	-1.18065026E+002	
-6.24080839E-001	-1.18027612E+002	
-6.03367533E-001	-1.18021192E+002	
-5.82654228E-001	-1.17995647E+002	
-5.61940923E-001	-1.17941157E+002	
-5.41227617E-001	-1.17909009E+002	
-5.20514312E-001	-1.17939652E+002	
-4.99801007E-001	-1.18046697E+002	
-4.79087701E-001	-1.18119528E+002	
-4.58374396E-001	-1.18148243E+002	
-4.37661091E-001	-1.18106936E+002	
-4.16947785E-001	-1.18082602E+002	
-3.96234480E-001	-1.18089466E+002	
-3.75521175E-001	-1.18099759E+002	
-3.54807869E-001	-1.18112156E+002	
-3.34094564E-001	-1.18118836E+002	
-3.13381259E-001	-1.18132159E+002	
-2.92667954E-001	-1.18095746E+002	
-2.71954648E-001	-1.17985766E+002	
-2.51241343E-001	-8.70953208E+001	
-2.30528038E-001	-8.68800146E+001	
-2.09814732E-001	-8.68799603E+001	
-1.89101427E-001	-8.68799579E+001	
-1.68388122E-001	-8.68799483E+001	
-1.47674816E-001	-8.68799271E+001	
-1.26961511E-001	-8.68799238E+001	
-1.06248206E-001	-8.68798996E+001	
-8.55349003E-002	-8.68799271E+001	
-6.48215950E-002	-8.68799777E+001	
-4.41082897E-002	-8.68800663E+001	
-2.33949844E-002	-8.68801085E+001	
-2.68167905E-003	-8.68801318E+001	
1.80316263E-002	-8.68801223E+001	
3.87449316E-002	-8.68801364E+001	
5.94582369E-002	-8.68802068E+001	
8.01715422E-002	-8.68802464E+001	
1.00884848E-001	-8.68802686E+001	
1.21598153E-001	-8.68803196E+001	
1.42311458E-001	-8.68803382E+001	
1.63024763E-001	-8.68803460E+001	
1.83738069E-001	-8.68803323E+001	
2.04451374E-001	-8.68803321E+001	
2.25164679E-001	-8.68803839E+001	
2.45877985E-001	-9.39335779E+001	
2.66591290E-001	-1.18567882E+002	
2.87304595E-001	-1.18671936E+002	
3.08017901E-001	-1.18713337E+002	
3.28731206E-001	-1.18670069E+002	
3.49444511E-001	-1.18687363E+002	
3.70157817E-001	-1.18717769E+002	
3.90871122E-001	-1.18762091E+002	
4.11584427E-001	-1.18794883E+002	
4.32297733E-001	-1.18802011E+002	
4.53011038E-001	-1.18793413E+002	
4.73724343E-001	-1.18767256E+002	
4.94437649E-001	-1.18733805E+002	
5.15150954E-001	-1.18755604E+002	
5.35864259E-001	-1.18722541E+002	
5.56577565E-001	-1.18663832E+002	
5.77290870E-001	-1.18684542E+002	
5.98004175E-001	-1.18716344E+002	
6.18717481E-001	-1.18685394E+002	
6.39430786E-001	-1.18656799E+002	
6.60144091E-001	-1.18688168E+002	
6.80857396E-001	-1.18725476E+002	
7.01570702E-001	-1.18762642E+002	
7.22284007E-001	-1.18775260E+002	
7.42997312E-001	-1.18779237E+002	
7.63710618E-001	-1.18753920E+002	
7.84423923E-001	-1.18736398E+002	
8.05137228E-001	-1.18729835E+002	
8.25850534E-001	-1.18762631E+002	
8.46563839E-001	-1.18760918E+002	
8.67277144E-001	-1.18797675E+002	
8.87990450E-001	-1.18819870E+002	
9.08703755E-001	-1.18791543E+002	
9.29417060E-001	-1.18771184E+002	
9.50130366E-001	-1.18781602E+002	
9.70843671E-001	-1.18785343E+002	
9.91556976E-001	-1.18845369E+002	
1.01227028E+000	-1.18837592E+002	
1.03298359E+000	-1.18877550E+002	
1.05369689E+000	-1.18953895E+002	
1.07441020E+000	-1.18949906E+002	
1.09512350E+000	-1.18899882E+002	
1.11583681E+000	-1.18874802E+002	
1.13655011E+000	-1.18914286E+002	
1.15726342E+000	-1.18908992E+002	
1.17797672E+000	-1.18925939E+002	
1.19869003E+000	-1.18928490E+002	
1.21940333E+000	-1.18949208E+002	
1.24011664E+000	-1.18950363E+002	
1.26082995E+000	-1.18917132E+002	
1.28154325E+000	-1.18955648E+002	
1.30225656E+000	-1.18990276E+002	
1.32296986E+000	-1.18970314E+002	
1.34368317E+000	-1.19034744E+002	
1.36439647E+000	-1.19073473E+002	
1.38510978E+000	-1.19108124E+002	
1.40582308E+000	-1.19155145E+002	
1.42653639E+000	-1.19150894E+002	
1.44724969E+000	-1.19111348E+002	
1.46796300E+000	-1.19113255E+002	
1.48867630E+000	-1.19114884E+002	
1.50938961E+000	-1.19113503E+002	
1.53010291E+000	-1.19080027E+002	
1.55081622E+000	-1.19013539E+002	
1.57152953E+000	-1.18950833E+002	
