Acquired on 5/14/2021 at 12:42:09
Calibrated on 5/14/2021 at 11:47:28
Device Descriptor:  [none]
Scan Range (nm):  1539.624  --  1560.517
Measurement Type:  Reflection
Group Index:  1.500
Gain:  24 dB
Domain:  Time
Spatial Resolution (mm):  50.000000
Frequency domain window was applied to measurement data.
Number of Data Points (in this file):  16384
NOTE: Data stored in this file is decimated by a factor of 64.

Time (ns)	Amplitude (dB)	
-1.00072081E+001	-1.20314851E+002	
-9.98649484E+000	-1.19990003E+002	
-9.96578154E+000	-1.19659658E+002	
-9.94506823E+000	-1.19396634E+002	
-9.92435493E+000	-1.19168577E+002	
-9.90364162E+000	-1.18938398E+002	
-9.88292832E+000	-1.18719808E+002	
-9.86221501E+000	-1.18506629E+002	
-9.84150171E+000	-1.18319974E+002	
-9.82078840E+000	-1.18145494E+002	
-9.80007509E+000	-1.17941096E+002	
-9.77936179E+000	-1.17751314E+002	
-9.75864848E+000	-1.17698447E+002	
-9.73793518E+000	-1.17733665E+002	
-9.71722187E+000	-1.17735039E+002	
-9.69650857E+000	-1.17743377E+002	
-9.67579526E+000	-1.17810850E+002	
-9.65508196E+000	-1.17795074E+002	
-9.63436865E+000	-1.17737647E+002	
-9.61365535E+000	-1.17733822E+002	
-9.59294204E+000	-1.17742110E+002	
-9.57222874E+000	-1.17777242E+002	
-9.55151543E+000	-1.17800620E+002	
-9.53080213E+000	-1.17782174E+002	
-9.51008882E+000	-1.17815582E+002	
-9.48937552E+000	-1.17839203E+002	
-9.46866221E+000	-1.17826755E+002	
-9.44794890E+000	-1.17807369E+002	
-9.42723560E+000	-1.17754576E+002	
-9.40652229E+000	-1.17734951E+002	
-9.38580899E+000	-1.17705730E+002	
-9.36509568E+000	-1.17697461E+002	
-9.34438238E+000	-1.17646448E+002	
-9.32366907E+000	-1.17609722E+002	
-9.30295577E+000	-1.17613756E+002	
-9.28224246E+000	-1.17621317E+002	
-9.26152916E+000	-1.17573872E+002	
-9.24081585E+000	-1.17506583E+002	
-9.22010255E+000	-1.17480994E+002	
-9.19938924E+000	-1.17512400E+002	
-9.17867594E+000	-1.17490506E+002	
-9.15796263E+000	-1.17479881E+002	
-9.13724932E+000	-1.17542484E+002	
-9.11653602E+000	-1.17547662E+002	
-9.09582271E+000	-1.17526087E+002	
-9.07510941E+000	-1.17519484E+002	
-9.05439610E+000	-1.17509527E+002	
-9.03368280E+000	-1.17393945E+002	
-9.01296949E+000	-1.17377815E+002	
-8.99225619E+000	-1.17373766E+002	
-8.97154288E+000	-1.17419566E+002	
-8.95082958E+000	-1.17427397E+002	
-8.93011627E+000	-1.17452507E+002	
-8.90940297E+000	-1.17480005E+002	
-8.88868966E+000	-1.17503448E+002	
-8.86797636E+000	-1.17491350E+002	
-8.84726305E+000	-1.17497554E+002	
-8.82654974E+000	-1.17480953E+002	
-8.80583644E+000	-1.17498875E+002	
-8.78512313E+000	-1.17494237E+002	
-8.76440983E+000	-1.17495640E+002	
-8.74369652E+000	-1.17559152E+002	
-8.72298322E+000	-1.17584626E+002	
-8.70226991E+000	-1.17522343E+002	
-8.68155661E+000	-1.17499487E+002	
-8.66084330E+000	-1.17526859E+002	
-8.64013000E+000	-1.17481402E+002	
-8.61941669E+000	-1.17437373E+002	
-8.59870339E+000	-1.17459456E+002	
-8.57799008E+000	-1.17459369E+002	
-8.55727678E+000	-1.17434590E+002	
-8.53656347E+000	-1.17551710E+002	
-8.51585017E+000	-1.17559466E+002	
-8.49513686E+000	-1.17559863E+002	
-8.47442355E+000	-1.17546412E+002	
-8.45371025E+000	-1.17563265E+002	
-8.43299694E+000	-1.17595807E+002	
-8.41228364E+000	-1.17563522E+002	
-8.39157033E+000	-1.17550238E+002	
-8.37085703E+000	-1.17594568E+002	
-8.35014372E+000	-1.17610221E+002	
-8.32943042E+000	-1.17644402E+002	
-8.30871711E+000	-1.17596373E+002	
-8.28800381E+000	-1.17628428E+002	
-8.26729050E+000	-1.17633635E+002	
-8.24657720E+000	-1.17625915E+002	
-8.22586389E+000	-1.17600391E+002	
-8.20515059E+000	-1.17650989E+002	
-8.18443728E+000	-1.17649497E+002	
-8.16372397E+000	-1.17635234E+002	
-8.14301067E+000	-1.17607128E+002	
-8.12229736E+000	-1.17623610E+002	
-8.10158406E+000	-1.17630875E+002	
-8.08087075E+000	-1.17631512E+002	
-8.06015745E+000	-1.17606021E+002	
-8.03944414E+000	-1.17553646E+002	
-8.01873084E+000	-1.17573195E+002	
-7.99801753E+000	-1.17570748E+002	
-7.97730423E+000	-1.17563430E+002	
-7.95659092E+000	-1.17542891E+002	
-7.93587762E+000	-1.17565586E+002	
-7.91516431E+000	-1.17605042E+002	
-7.89445101E+000	-1.17600625E+002	
-7.87373770E+000	-1.17576633E+002	
-7.85302439E+000	-1.17575920E+002	
-7.83231109E+000	-1.17552136E+002	
-7.81159778E+000	-1.17598655E+002	
-7.79088448E+000	-1.17622149E+002	
-7.77017117E+000	-1.17637249E+002	
-7.74945787E+000	-1.17648407E+002	
-7.72874456E+000	-1.17672924E+002	
-7.70803126E+000	-1.17636535E+002	
-7.68731795E+000	-1.17669976E+002	
-7.66660465E+000	-1.17665046E+002	
-7.64589134E+000	-1.17670292E+002	
-7.62517804E+000	-1.17670605E+002	
-7.60446473E+000	-1.17590982E+002	
-7.58375143E+000	-1.17603983E+002	
-7.56303812E+000	-1.17636894E+002	
-7.54232482E+000	-1.17698623E+002	
-7.52161151E+000	-1.17687852E+002	
-7.50089820E+000	-1.17697347E+002	
-7.48018490E+000	-1.17680873E+002	
-7.45947159E+000	-1.17728032E+002	
-7.43875829E+000	-1.17657235E+002	
-7.41804498E+000	-1.17576670E+002	
-7.39733168E+000	-1.17609551E+002	
-7.37661837E+000	-1.17606288E+002	
-7.35590507E+000	-1.17616345E+002	
-7.33519176E+000	-1.17642476E+002	
-7.31447846E+000	-1.17664437E+002	
-7.29376515E+000	-1.17647153E+002	
-7.27305185E+000	-1.17618051E+002	
-7.25233854E+000	-1.17644488E+002	
-7.23162524E+000	-1.17642809E+002	
-7.21091193E+000	-1.17629484E+002	
-7.19019862E+000	-1.17618018E+002	
-7.16948532E+000	-1.17661799E+002	
-7.14877201E+000	-1.17721727E+002	
-7.12805871E+000	-1.17765381E+002	
-7.10734540E+000	-1.17845029E+002	
-7.08663210E+000	-1.17889165E+002	
-7.06591879E+000	-1.17871539E+002	
-7.04520549E+000	-1.17868722E+002	
-7.02449218E+000	-1.17851067E+002	
-7.00377888E+000	-1.17819920E+002	
-6.98306557E+000	-1.17848490E+002	
-6.96235227E+000	-1.17807667E+002	
-6.94163896E+000	-1.17843589E+002	
-6.92092566E+000	-1.17902707E+002	
-6.90021235E+000	-1.17913486E+002	
-6.87949904E+000	-1.17901317E+002	
-6.85878574E+000	-1.17880999E+002	
-6.83807243E+000	-1.17900197E+002	
-6.81735913E+000	-1.17914443E+002	
-6.79664582E+000	-1.17867280E+002	
-6.77593252E+000	-1.17899417E+002	
-6.75521921E+000	-1.17848172E+002	
-6.73450591E+000	-1.17847609E+002	
-6.71379260E+000	-1.17829613E+002	
-6.69307930E+000	-1.17831960E+002	
-6.67236599E+000	-1.17794133E+002	
-6.65165269E+000	-1.17778903E+002	
-6.63093938E+000	-1.17783886E+002	
-6.61022608E+000	-1.17793011E+002	
-6.58951277E+000	-1.17788299E+002	
-6.56879947E+000	-1.17769980E+002	
-6.54808616E+000	-1.17735173E+002	
-6.52737285E+000	-1.17714279E+002	
-6.50665955E+000	-1.17744944E+002	
-6.48594624E+000	-1.17785942E+002	
-6.46523294E+000	-1.17820487E+002	
-6.44451963E+000	-1.17751208E+002	
-6.42380633E+000	-1.17704388E+002	
-6.40309302E+000	-1.17690461E+002	
-6.38237972E+000	-1.17663038E+002	
-6.36166641E+000	-1.17658593E+002	
-6.34095311E+000	-1.17658689E+002	
-6.32023980E+000	-1.17651808E+002	
-6.29952650E+000	-1.17673489E+002	
-6.27881319E+000	-1.17647899E+002	
-6.25809989E+000	-1.17665682E+002	
-6.23738658E+000	-1.17659900E+002	
-6.21667327E+000	-1.17644391E+002	
-6.19595997E+000	-1.17649922E+002	
-6.17524666E+000	-1.17635044E+002	
-6.15453336E+000	-1.17641031E+002	
-6.13382005E+000	-1.17628245E+002	
-6.11310675E+000	-1.17636971E+002	
-6.09239344E+000	-1.17630773E+002	
-6.07168014E+000	-1.17586085E+002	
-6.05096683E+000	-1.17658164E+002	
-6.03025353E+000	-1.17671542E+002	
-6.00954022E+000	-1.17642100E+002	
-5.98882692E+000	-1.17591043E+002	
-5.96811361E+000	-1.17596347E+002	
-5.94740031E+000	-1.17643196E+002	
-5.92668700E+000	-1.17687639E+002	
-5.90597369E+000	-1.17700176E+002	
-5.88526039E+000	-1.17745138E+002	
-5.86454708E+000	-1.17771735E+002	
-5.84383378E+000	-1.17739438E+002	
-5.82312047E+000	-1.17744626E+002	
-5.80240717E+000	-1.17705594E+002	
-5.78169386E+000	-1.17711135E+002	
-5.76098056E+000	-1.17713054E+002	
-5.74026725E+000	-1.17711734E+002	
-5.71955395E+000	-1.17742826E+002	
-5.69884064E+000	-1.17742831E+002	
-5.67812734E+000	-1.17764576E+002	
-5.65741403E+000	-1.17760301E+002	
-5.63670073E+000	-1.17763982E+002	
-5.61598742E+000	-1.17739644E+002	
-5.59527412E+000	-1.17696121E+002	
-5.57456081E+000	-1.17757521E+002	
-5.55384750E+000	-1.17680427E+002	
-5.53313420E+000	-1.17605946E+002	
-5.51242089E+000	-1.17623435E+002	
-5.49170759E+000	-1.17632938E+002	
-5.47099428E+000	-1.17614421E+002	
-5.45028098E+000	-1.17658321E+002	
-5.42956767E+000	-1.17699482E+002	
-5.40885437E+000	-1.17682628E+002	
-5.38814106E+000	-1.17669590E+002	
-5.36742776E+000	-1.17647341E+002	
-5.34671445E+000	-1.17683153E+002	
-5.32600115E+000	-1.17693724E+002	
-5.30528784E+000	-1.17718668E+002	
-5.28457454E+000	-1.17701026E+002	
-5.26386123E+000	-1.17683295E+002	
-5.24314792E+000	-1.17625988E+002	
-5.22243462E+000	-1.17606625E+002	
-5.20172131E+000	-1.17608492E+002	
-5.18100801E+000	-1.17575050E+002	
-5.16029470E+000	-1.17567023E+002	
-5.13958140E+000	-1.17526075E+002	
-5.11886809E+000	-1.17503788E+002	
-5.09815479E+000	-1.17520729E+002	
-5.07744148E+000	-1.17491641E+002	
-5.05672818E+000	-1.17566286E+002	
-5.03601487E+000	-1.17598814E+002	
-5.01530157E+000	-1.17641956E+002	
-4.99458826E+000	-1.17646513E+002	
-4.97387496E+000	-1.17592555E+002	
-4.95316165E+000	-1.17593236E+002	
-4.93244834E+000	-1.17550538E+002	
-4.91173504E+000	-1.17537523E+002	
-4.89102173E+000	-1.17535592E+002	
-4.87030843E+000	-1.17563868E+002	
-4.84959512E+000	-1.17546615E+002	
-4.82888182E+000	-1.17505008E+002	
-4.80816851E+000	-1.17490486E+002	
-4.78745521E+000	-1.17499044E+002	
-4.76674190E+000	-1.17525180E+002	
-4.74602860E+000	-1.17543885E+002	
-4.72531529E+000	-1.17596338E+002	
-4.70460199E+000	-1.17588760E+002	
-4.68388868E+000	-1.17633670E+002	
-4.66317538E+000	-1.17617702E+002	
-4.64246207E+000	-1.17661560E+002	
-4.62174877E+000	-1.17707339E+002	
-4.60103546E+000	-1.17731571E+002	
-4.58032215E+000	-1.17748891E+002	
-4.55960885E+000	-1.17712711E+002	
-4.53889554E+000	-1.17745440E+002	
-4.51818224E+000	-1.17670847E+002	
-4.49746893E+000	-1.17623079E+002	
-4.47675563E+000	-1.17668637E+002	
-4.45604232E+000	-1.17650366E+002	
-4.43532902E+000	-1.17655968E+002	
-4.41461571E+000	-1.17656012E+002	
-4.39390241E+000	-1.17659844E+002	
-4.37318910E+000	-1.17666867E+002	
-4.35247580E+000	-1.17650763E+002	
-4.33176249E+000	-1.17645095E+002	
-4.31104919E+000	-1.17638686E+002	
-4.29033588E+000	-1.17633972E+002	
-4.26962257E+000	-1.17628054E+002	
-4.24890927E+000	-1.17670629E+002	
-4.22819596E+000	-1.17671379E+002	
-4.20748266E+000	-1.17704303E+002	
-4.18676935E+000	-1.17666969E+002	
-4.16605605E+000	-1.17674971E+002	
-4.14534274E+000	-1.17682564E+002	
-4.12462944E+000	-1.17637767E+002	
-4.10391613E+000	-1.17633965E+002	
-4.08320283E+000	-1.17626812E+002	
-4.06248952E+000	-1.17615043E+002	
-4.04177622E+000	-1.17572260E+002	
-4.02106291E+000	-1.17606620E+002	
-4.00034961E+000	-1.17609629E+002	
-3.97963630E+000	-1.17567133E+002	
-3.95892299E+000	-1.17569548E+002	
-3.93820969E+000	-1.17535698E+002	
-3.91749638E+000	-1.17546896E+002	
-3.89678308E+000	-1.17520112E+002	
-3.87606977E+000	-1.17461142E+002	
-3.85535647E+000	-1.17465172E+002	
-3.83464316E+000	-1.17455798E+002	
-3.81392986E+000	-1.17457196E+002	
-3.79321655E+000	-1.17486655E+002	
-3.77250325E+000	-1.17441663E+002	
-3.75178994E+000	-1.17452629E+002	
-3.73107664E+000	-1.17459083E+002	
-3.71036333E+000	-1.17402624E+002	
-3.68965003E+000	-1.17418798E+002	
-3.66893672E+000	-1.17466584E+002	
-3.64822342E+000	-1.17434492E+002	
-3.62751011E+000	-1.17458149E+002	
-3.60679680E+000	-1.17462606E+002	
-3.58608350E+000	-1.17463482E+002	
-3.56537019E+000	-1.17492173E+002	
-3.54465689E+000	-1.17490699E+002	
-3.52394358E+000	-1.17511553E+002	
-3.50323028E+000	-1.17555320E+002	
-3.48251697E+000	-1.17595696E+002	
-3.46180367E+000	-1.17634348E+002	
-3.44109036E+000	-1.17657784E+002	
-3.42037706E+000	-1.17687161E+002	
-3.39966375E+000	-1.17733496E+002	
-3.37895045E+000	-1.17782612E+002	
-3.35823714E+000	-1.17775602E+002	
-3.33752384E+000	-1.17778905E+002	
-3.31681053E+000	-1.17775932E+002	
-3.29609722E+000	-1.17748787E+002	
-3.27538392E+000	-1.17759598E+002	
-3.25467061E+000	-1.17773581E+002	
-3.23395731E+000	-1.17766246E+002	
-3.21324400E+000	-1.17790802E+002	
-3.19253070E+000	-1.17792063E+002	
-3.17181739E+000	-1.17759008E+002	
-3.15110409E+000	-1.17742774E+002	
-3.13039078E+000	-1.17735520E+002	
-3.10967748E+000	-1.17771934E+002	
-3.08896417E+000	-1.17751397E+002	
-3.06825087E+000	-1.17735118E+002	
-3.04753756E+000	-1.17770226E+002	
-3.02682426E+000	-1.17746880E+002	
-3.00611095E+000	-1.17679048E+002	
-2.98539764E+000	-1.17723342E+002	
-2.96468434E+000	-1.17688844E+002	
-2.94397103E+000	-1.17666799E+002	
-2.92325773E+000	-1.17621135E+002	
-2.90254442E+000	-1.17605653E+002	
-2.88183112E+000	-1.17616579E+002	
-2.86111781E+000	-1.17660582E+002	
-2.84040451E+000	-1.17701943E+002	
-2.81969120E+000	-1.17737465E+002	
-2.79897790E+000	-1.17807954E+002	
-2.77826459E+000	-1.17784582E+002	
-2.75755129E+000	-1.17755436E+002	
-2.73683798E+000	-1.17766036E+002	
-2.71612468E+000	-1.17713316E+002	
-2.69541137E+000	-1.17704911E+002	
-2.67469807E+000	-1.17771148E+002	
-2.65398476E+000	-1.17798187E+002	
-2.63327145E+000	-1.17794457E+002	
-2.61255815E+000	-1.17740856E+002	
-2.59184484E+000	-1.17745436E+002	
-2.57113154E+000	-1.17738166E+002	
-2.55041823E+000	-1.17730268E+002	
-2.52970493E+000	-1.17785352E+002	
-2.50899162E+000	-1.17852548E+002	
-2.48827832E+000	-1.17840350E+002	
-2.46756501E+000	-1.17849010E+002	
-2.44685171E+000	-1.17845327E+002	
-2.42613840E+000	-1.17881047E+002	
-2.40542510E+000	-1.17905113E+002	
-2.38471179E+000	-1.17896693E+002	
-2.36399849E+000	-1.17879977E+002	
-2.34328518E+000	-1.17829112E+002	
-2.32257187E+000	-1.17790654E+002	
-2.30185857E+000	-1.17720454E+002	
-2.28114526E+000	-1.17725643E+002	
-2.26043196E+000	-1.17795848E+002	
-2.23971865E+000	-1.17773687E+002	
-2.21900535E+000	-1.17827332E+002	
-2.19829204E+000	-1.17854653E+002	
-2.17757874E+000	-1.17810851E+002	
-2.15686543E+000	-1.17788246E+002	
-2.13615213E+000	-1.17828548E+002	
-2.11543882E+000	-1.17836711E+002	
-2.09472552E+000	-1.17858170E+002	
-2.07401221E+000	-1.17835397E+002	
-2.05329891E+000	-1.17791080E+002	
-2.03258560E+000	-1.17806285E+002	
-2.01187229E+000	-1.17803744E+002	
-1.99115899E+000	-1.17798495E+002	
-1.97044568E+000	-1.17736896E+002	
-1.94973238E+000	-1.17747855E+002	
-1.92901907E+000	-1.17726391E+002	
-1.90830577E+000	-1.17676299E+002	
-1.88759246E+000	-1.17664328E+002	
-1.86687916E+000	-1.17680724E+002	
-1.84616585E+000	-1.17651943E+002	
-1.82545255E+000	-1.17725327E+002	
-1.80473924E+000	-1.17723539E+002	
-1.78402594E+000	-1.17762329E+002	
-1.76331263E+000	-1.17769815E+002	
-1.74259933E+000	-1.17735221E+002	
-1.72188602E+000	-1.17728766E+002	
-1.70117272E+000	-1.17784546E+002	
-1.68045941E+000	-1.17798803E+002	
-1.65974610E+000	-1.17754827E+002	
-1.63903280E+000	-1.17727358E+002	
-1.61831949E+000	-1.17772810E+002	
-1.59760619E+000	-1.17777269E+002	
-1.57689288E+000	-1.17790029E+002	
-1.55617958E+000	-1.17851248E+002	
-1.53546627E+000	-1.17835880E+002	
-1.51475297E+000	-1.17827586E+002	
-1.49403966E+000	-1.17793372E+002	
-1.47332636E+000	-1.17824805E+002	
-1.45261305E+000	-1.17792466E+002	
-1.43189975E+000	-1.17788821E+002	
-1.41118644E+000	-1.17772867E+002	
-1.39047314E+000	-1.17790325E+002	
-1.36975983E+000	-1.17759501E+002	
-1.34904652E+000	-1.17761481E+002	
-1.32833322E+000	-1.17713389E+002	
-1.30761991E+000	-1.17684820E+002	
-1.28690661E+000	-1.17687780E+002	
-1.26619330E+000	-1.17670780E+002	
-1.24548000E+000	-1.17705858E+002	
-1.22476669E+000	-1.17746083E+002	
-1.20405339E+000	-1.17652594E+002	
-1.18334008E+000	-1.17650870E+002	
-1.16262678E+000	-1.17725186E+002	
-1.14191347E+000	-1.17747329E+002	
-1.12120017E+000	-1.17737854E+002	
-1.10048686E+000	-1.17708119E+002	
-1.07977356E+000	-1.17708876E+002	
-1.05906025E+000	-1.17725463E+002	
-1.03834694E+000	-1.17706470E+002	
-1.01763364E+000	-1.17663526E+002	
-9.96920334E-001	-1.17613139E+002	
-9.76207029E-001	-1.17596988E+002	
-9.55493724E-001	-1.17606889E+002	
-9.34780418E-001	-1.17627265E+002	
-9.14067113E-001	-1.17691399E+002	
-8.93353808E-001	-1.17679426E+002	
-8.72640502E-001	-1.17657874E+002	
-8.51927197E-001	-1.17691922E+002	
-8.31213892E-001	-1.17718824E+002	
-8.10500586E-001	-1.17759133E+002	
-7.89787281E-001	-1.17765512E+002	
-7.69073976E-001	-1.17768709E+002	
-7.48360671E-001	-1.17745609E+002	
-7.27647365E-001	-1.17729092E+002	
-7.06934060E-001	-1.17755231E+002	
-6.86220755E-001	-1.17779514E+002	
-6.65507449E-001	-1.17799337E+002	
-6.44794144E-001	-1.17790001E+002	
-6.24080839E-001	-1.17764439E+002	
-6.03367533E-001	-1.17751709E+002	
-5.82654228E-001	-1.17732465E+002	
-5.61940923E-001	-1.17681237E+002	
-5.41227617E-001	-1.17641745E+002	
-5.20514312E-001	-1.17654518E+002	
-4.99801007E-001	-1.17733476E+002	
-4.79087701E-001	-1.17788874E+002	
-4.58374396E-001	-1.17809711E+002	
-4.37661091E-001	-1.17765677E+002	
-4.16947785E-001	-1.17714472E+002	
-3.96234480E-001	-1.17702601E+002	
-3.75521175E-001	-1.17714573E+002	
-3.54807869E-001	-1.17711270E+002	
-3.34094564E-001	-1.17721588E+002	
-3.13381259E-001	-1.17739844E+002	
-2.92667954E-001	-1.17723271E+002	
-2.71954648E-001	-1.17586004E+002	
-2.51241343E-001	-8.54120453E+001	
-2.30528038E-001	-8.50889542E+001	
-2.09814732E-001	-8.50889596E+001	
-1.89101427E-001	-8.50889446E+001	
-1.68388122E-001	-8.50889129E+001	
-1.47674816E-001	-8.50889221E+001	
-1.26961511E-001	-8.50889298E+001	
-1.06248206E-001	-8.50889238E+001	
-8.55349003E-002	-8.50889424E+001	
-6.48215950E-002	-8.50889781E+001	
-4.41082897E-002	-8.50890296E+001	
-2.33949844E-002	-8.50890101E+001	
-2.68167905E-003	-8.50890099E+001	
1.80316263E-002	-8.50889835E+001	
3.87449316E-002	-8.50889676E+001	
5.94582369E-002	-8.50889932E+001	
8.01715422E-002	-8.50889996E+001	
1.00884848E-001	-8.50890102E+001	
1.21598153E-001	-8.50890475E+001	
1.42311458E-001	-8.50890569E+001	
1.63024763E-001	-8.50890382E+001	
1.83738069E-001	-8.50890209E+001	
2.04451374E-001	-8.50890162E+001	
2.25164679E-001	-8.50890330E+001	
2.45877985E-001	-9.16589077E+001	
2.66591290E-001	-1.17772193E+002	
2.87304595E-001	-1.17791866E+002	
3.08017901E-001	-1.17786351E+002	
3.28731206E-001	-1.17829582E+002	
3.49444511E-001	-1.17818094E+002	
3.70157817E-001	-1.17815666E+002	
3.90871122E-001	-1.17865968E+002	
4.11584427E-001	-1.17862527E+002	
4.32297733E-001	-1.17820937E+002	
4.53011038E-001	-1.17811087E+002	
4.73724343E-001	-1.17835322E+002	
4.94437649E-001	-1.17842362E+002	
5.15150954E-001	-1.17905513E+002	
5.35864259E-001	-1.17937062E+002	
5.56577565E-001	-1.17940659E+002	
5.77290870E-001	-1.17901324E+002	
5.98004175E-001	-1.17918390E+002	
6.18717481E-001	-1.17931294E+002	
6.39430786E-001	-1.17904132E+002	
6.60144091E-001	-1.17900554E+002	
6.80857396E-001	-1.17892747E+002	
7.01570702E-001	-1.17854283E+002	
7.22284007E-001	-1.17943879E+002	
7.42997312E-001	-1.17982924E+002	
7.63710618E-001	-1.17974526E+002	
7.84423923E-001	-1.18009371E+002	
8.05137228E-001	-1.18097504E+002	
8.25850534E-001	-1.18083475E+002	
8.46563839E-001	-1.18061247E+002	
8.67277144E-001	-1.18027253E+002	
8.87990450E-001	-1.18005211E+002	
9.08703755E-001	-1.18024363E+002	
9.29417060E-001	-1.18082888E+002	
9.50130366E-001	-1.18061009E+002	
9.70843671E-001	-1.18037606E+002	
9.91556976E-001	-1.17935572E+002	
1.01227028E+000	-1.17886668E+002	
1.03298359E+000	-1.17904272E+002	
1.05369689E+000	-1.17917348E+002	
1.07441020E+000	-1.17985035E+002	
1.09512350E+000	-1.17986586E+002	
1.11583681E+000	-1.17931402E+002	
1.13655011E+000	-1.17883315E+002	
1.15726342E+000	-1.17917758E+002	
1.17797672E+000	-1.17903753E+002	
1.19869003E+000	-1.17977884E+002	
1.21940333E+000	-1.17942983E+002	
1.24011664E+000	-1.17914741E+002	
1.26082995E+000	-1.17889007E+002	
1.28154325E+000	-1.17887181E+002	
1.30225656E+000	-1.17842972E+002	
1.32296986E+000	-1.17799093E+002	
1.34368317E+000	-1.17792275E+002	
1.36439647E+000	-1.17861019E+002	
1.38510978E+000	-1.17927579E+002	
1.40582308E+000	-1.17907859E+002	
1.42653639E+000	-1.17921319E+002	
1.44724969E+000	-1.17959856E+002	
1.46796300E+000	-1.18000855E+002	
1.48867630E+000	-1.18128897E+002	
1.50938961E+000	-1.18145399E+002	
1.53010291E+000	-1.18069923E+002	
1.55081622E+000	-1.18061493E+002	
1.57152953E+000	-1.18051969E+002	
