Acquired on 5/10/2021 at 10:56:57
Calibrated on 5/10/2021 at 10:35:08
Device Descriptor:  [none]
Scan Range (nm):  1539.624  --  1560.517
Measurement Type:  Reflection
Group Index:  1.500
Gain:  24 dB
Domain:  Time
Spatial Resolution (mm):  50.000000
Frequency domain window was applied to measurement data.
Number of Data Points (in this file):  16384
NOTE: Data stored in this file is decimated by a factor of 64.

Time (ns)	Amplitude (dB)	
-1.00072081E+001	-1.20319488E+002	
-9.98649484E+000	-1.19998362E+002	
-9.96578154E+000	-1.19675834E+002	
-9.94506823E+000	-1.19416719E+002	
-9.92435493E+000	-1.19193212E+002	
-9.90364162E+000	-1.18960147E+002	
-9.88292832E+000	-1.18743882E+002	
-9.86221501E+000	-1.18523343E+002	
-9.84150171E+000	-1.18335235E+002	
-9.82078840E+000	-1.18157393E+002	
-9.80007509E+000	-1.17955179E+002	
-9.77936179E+000	-1.17768166E+002	
-9.75864848E+000	-1.17713772E+002	
-9.73793518E+000	-1.17745988E+002	
-9.71722187E+000	-1.17747877E+002	
-9.69650857E+000	-1.17759050E+002	
-9.67579526E+000	-1.17833412E+002	
-9.65508196E+000	-1.17813122E+002	
-9.63436865E+000	-1.17757215E+002	
-9.61365535E+000	-1.17754084E+002	
-9.59294204E+000	-1.17768439E+002	
-9.57222874E+000	-1.17806581E+002	
-9.55151543E+000	-1.17834385E+002	
-9.53080213E+000	-1.17812144E+002	
-9.51008882E+000	-1.17843281E+002	
-9.48937552E+000	-1.17862464E+002	
-9.46866221E+000	-1.17845157E+002	
-9.44794890E+000	-1.17818126E+002	
-9.42723560E+000	-1.17760966E+002	
-9.40652229E+000	-1.17744634E+002	
-9.38580899E+000	-1.17713990E+002	
-9.36509568E+000	-1.17706938E+002	
-9.34438238E+000	-1.17654604E+002	
-9.32366907E+000	-1.17623338E+002	
-9.30295577E+000	-1.17624892E+002	
-9.28224246E+000	-1.17628196E+002	
-9.26152916E+000	-1.17576075E+002	
-9.24081585E+000	-1.17512023E+002	
-9.22010255E+000	-1.17487327E+002	
-9.19938924E+000	-1.17519586E+002	
-9.17867594E+000	-1.17488258E+002	
-9.15796263E+000	-1.17482019E+002	
-9.13724932E+000	-1.17544570E+002	
-9.11653602E+000	-1.17553126E+002	
-9.09582271E+000	-1.17531355E+002	
-9.07510941E+000	-1.17518753E+002	
-9.05439610E+000	-1.17506394E+002	
-9.03368280E+000	-1.17387946E+002	
-9.01296949E+000	-1.17375522E+002	
-8.99225619E+000	-1.17375039E+002	
-8.97154288E+000	-1.17419577E+002	
-8.95082958E+000	-1.17432952E+002	
-8.93011627E+000	-1.17458154E+002	
-8.90940297E+000	-1.17487053E+002	
-8.88868966E+000	-1.17510443E+002	
-8.86797636E+000	-1.17499928E+002	
-8.84726305E+000	-1.17507465E+002	
-8.82654974E+000	-1.17490233E+002	
-8.80583644E+000	-1.17510973E+002	
-8.78512313E+000	-1.17504737E+002	
-8.76440983E+000	-1.17507235E+002	
-8.74369652E+000	-1.17571045E+002	
-8.72298322E+000	-1.17591006E+002	
-8.70226991E+000	-1.17521519E+002	
-8.68155661E+000	-1.17499577E+002	
-8.66084330E+000	-1.17522627E+002	
-8.64013000E+000	-1.17478418E+002	
-8.61941669E+000	-1.17431311E+002	
-8.59870339E+000	-1.17452200E+002	
-8.57799008E+000	-1.17453810E+002	
-8.55727678E+000	-1.17429701E+002	
-8.53656347E+000	-1.17552180E+002	
-8.51585017E+000	-1.17559168E+002	
-8.49513686E+000	-1.17553426E+002	
-8.47442355E+000	-1.17540757E+002	
-8.45371025E+000	-1.17560213E+002	
-8.43299694E+000	-1.17592996E+002	
-8.41228364E+000	-1.17561248E+002	
-8.39157033E+000	-1.17548382E+002	
-8.37085703E+000	-1.17592836E+002	
-8.35014372E+000	-1.17616279E+002	
-8.32943042E+000	-1.17646615E+002	
-8.30871711E+000	-1.17593086E+002	
-8.28800381E+000	-1.17626503E+002	
-8.26729050E+000	-1.17629223E+002	
-8.24657720E+000	-1.17619721E+002	
-8.22586389E+000	-1.17599452E+002	
-8.20515059E+000	-1.17657211E+002	
-8.18443728E+000	-1.17659993E+002	
-8.16372397E+000	-1.17648850E+002	
-8.14301067E+000	-1.17614879E+002	
-8.12229736E+000	-1.17623395E+002	
-8.10158406E+000	-1.17632077E+002	
-8.08087075E+000	-1.17634741E+002	
-8.06015745E+000	-1.17611173E+002	
-8.03944414E+000	-1.17559456E+002	
-8.01873084E+000	-1.17578623E+002	
-7.99801753E+000	-1.17580690E+002	
-7.97730423E+000	-1.17574320E+002	
-7.95659092E+000	-1.17543983E+002	
-7.93587762E+000	-1.17563168E+002	
-7.91516431E+000	-1.17597347E+002	
-7.89445101E+000	-1.17586832E+002	
-7.87373770E+000	-1.17560328E+002	
-7.85302439E+000	-1.17555510E+002	
-7.83231109E+000	-1.17533140E+002	
-7.81159778E+000	-1.17577806E+002	
-7.79088448E+000	-1.17599428E+002	
-7.77017117E+000	-1.17616243E+002	
-7.74945787E+000	-1.17628595E+002	
-7.72874456E+000	-1.17654554E+002	
-7.70803126E+000	-1.17618148E+002	
-7.68731795E+000	-1.17650469E+002	
-7.66660465E+000	-1.17643938E+002	
-7.64589134E+000	-1.17648023E+002	
-7.62517804E+000	-1.17653825E+002	
-7.60446473E+000	-1.17570785E+002	
-7.58375143E+000	-1.17582410E+002	
-7.56303812E+000	-1.17616493E+002	
-7.54232482E+000	-1.17677945E+002	
-7.52161151E+000	-1.17667979E+002	
-7.50089820E+000	-1.17676243E+002	
-7.48018490E+000	-1.17663705E+002	
-7.45947159E+000	-1.17709849E+002	
-7.43875829E+000	-1.17637463E+002	
-7.41804498E+000	-1.17559296E+002	
-7.39733168E+000	-1.17596497E+002	
-7.37661837E+000	-1.17599696E+002	
-7.35590507E+000	-1.17610145E+002	
-7.33519176E+000	-1.17631730E+002	
-7.31447846E+000	-1.17654710E+002	
-7.29376515E+000	-1.17640392E+002	
-7.27305185E+000	-1.17613273E+002	
-7.25233854E+000	-1.17644302E+002	
-7.23162524E+000	-1.17636849E+002	
-7.21091193E+000	-1.17622973E+002	
-7.19019862E+000	-1.17617527E+002	
-7.16948532E+000	-1.17664648E+002	
-7.14877201E+000	-1.17731339E+002	
-7.12805871E+000	-1.17776465E+002	
-7.10734540E+000	-1.17864199E+002	
-7.08663210E+000	-1.17906544E+002	
-7.06591879E+000	-1.17887021E+002	
-7.04520549E+000	-1.17883285E+002	
-7.02449218E+000	-1.17865849E+002	
-7.00377888E+000	-1.17839399E+002	
-6.98306557E+000	-1.17863267E+002	
-6.96235227E+000	-1.17830882E+002	
-6.94163896E+000	-1.17871775E+002	
-6.92092566E+000	-1.17931412E+002	
-6.90021235E+000	-1.17940636E+002	
-6.87949904E+000	-1.17921179E+002	
-6.85878574E+000	-1.17895556E+002	
-6.83807243E+000	-1.17922530E+002	
-6.81735913E+000	-1.17936136E+002	
-6.79664582E+000	-1.17883409E+002	
-6.77593252E+000	-1.17914170E+002	
-6.75521921E+000	-1.17861063E+002	
-6.73450591E+000	-1.17858964E+002	
-6.71379260E+000	-1.17836095E+002	
-6.69307930E+000	-1.17828754E+002	
-6.67236599E+000	-1.17779744E+002	
-6.65165269E+000	-1.17759030E+002	
-6.63093938E+000	-1.17764711E+002	
-6.61022608E+000	-1.17772811E+002	
-6.58951277E+000	-1.17765132E+002	
-6.56879947E+000	-1.17747740E+002	
-6.54808616E+000	-1.17716478E+002	
-6.52737285E+000	-1.17697499E+002	
-6.50665955E+000	-1.17726706E+002	
-6.48594624E+000	-1.17766141E+002	
-6.46523294E+000	-1.17792514E+002	
-6.44451963E+000	-1.17715313E+002	
-6.42380633E+000	-1.17671138E+002	
-6.40309302E+000	-1.17658558E+002	
-6.38237972E+000	-1.17632337E+002	
-6.36166641E+000	-1.17636591E+002	
-6.34095311E+000	-1.17638001E+002	
-6.32023980E+000	-1.17633406E+002	
-6.29952650E+000	-1.17654034E+002	
-6.27881319E+000	-1.17622758E+002	
-6.25809989E+000	-1.17638105E+002	
-6.23738658E+000	-1.17633228E+002	
-6.21667327E+000	-1.17621804E+002	
-6.19595997E+000	-1.17629763E+002	
-6.17524666E+000	-1.17618742E+002	
-6.15453336E+000	-1.17625593E+002	
-6.13382005E+000	-1.17612071E+002	
-6.11310675E+000	-1.17616214E+002	
-6.09239344E+000	-1.17610948E+002	
-6.07168014E+000	-1.17571711E+002	
-6.05096683E+000	-1.17639561E+002	
-6.03025353E+000	-1.17643325E+002	
-6.00954022E+000	-1.17612717E+002	
-5.98882692E+000	-1.17563820E+002	
-5.96811361E+000	-1.17575407E+002	
-5.94740031E+000	-1.17625338E+002	
-5.92668700E+000	-1.17666171E+002	
-5.90597369E+000	-1.17677855E+002	
-5.88526039E+000	-1.17726417E+002	
-5.86454708E+000	-1.17744244E+002	
-5.84383378E+000	-1.17710085E+002	
-5.82312047E+000	-1.17718494E+002	
-5.80240717E+000	-1.17692621E+002	
-5.78169386E+000	-1.17708113E+002	
-5.76098056E+000	-1.17715950E+002	
-5.74026725E+000	-1.17709091E+002	
-5.71955395E+000	-1.17739155E+002	
-5.69884064E+000	-1.17749049E+002	
-5.67812734E+000	-1.17778654E+002	
-5.65741403E+000	-1.17777153E+002	
-5.63670073E+000	-1.17779269E+002	
-5.61598742E+000	-1.17757103E+002	
-5.59527412E+000	-1.17712304E+002	
-5.57456081E+000	-1.17770168E+002	
-5.55384750E+000	-1.17699425E+002	
-5.53313420E+000	-1.17629719E+002	
-5.51242089E+000	-1.17654595E+002	
-5.49170759E+000	-1.17660899E+002	
-5.47099428E+000	-1.17639120E+002	
-5.45028098E+000	-1.17689347E+002	
-5.42956767E+000	-1.17735496E+002	
-5.40885437E+000	-1.17720953E+002	
-5.38814106E+000	-1.17710948E+002	
-5.36742776E+000	-1.17691864E+002	
-5.34671445E+000	-1.17722403E+002	
-5.32600115E+000	-1.17721412E+002	
-5.30528784E+000	-1.17737379E+002	
-5.28457454E+000	-1.17722706E+002	
-5.26386123E+000	-1.17700817E+002	
-5.24314792E+000	-1.17647959E+002	
-5.22243462E+000	-1.17632465E+002	
-5.20172131E+000	-1.17623294E+002	
-5.18100801E+000	-1.17590199E+002	
-5.16029470E+000	-1.17590451E+002	
-5.13958140E+000	-1.17548615E+002	
-5.11886809E+000	-1.17530155E+002	
-5.09815479E+000	-1.17551007E+002	
-5.07744148E+000	-1.17520632E+002	
-5.05672818E+000	-1.17586114E+002	
-5.03601487E+000	-1.17616524E+002	
-5.01530157E+000	-1.17651858E+002	
-4.99458826E+000	-1.17658670E+002	
-4.97387496E+000	-1.17608463E+002	
-4.95316165E+000	-1.17604549E+002	
-4.93244834E+000	-1.17560922E+002	
-4.91173504E+000	-1.17545471E+002	
-4.89102173E+000	-1.17531615E+002	
-4.87030843E+000	-1.17560393E+002	
-4.84959512E+000	-1.17543808E+002	
-4.82888182E+000	-1.17507278E+002	
-4.80816851E+000	-1.17494044E+002	
-4.78745521E+000	-1.17497512E+002	
-4.76674190E+000	-1.17517257E+002	
-4.74602860E+000	-1.17533777E+002	
-4.72531529E+000	-1.17580658E+002	
-4.70460199E+000	-1.17575933E+002	
-4.68388868E+000	-1.17615623E+002	
-4.66317538E+000	-1.17593546E+002	
-4.64246207E+000	-1.17643753E+002	
-4.62174877E+000	-1.17688209E+002	
-4.60103546E+000	-1.17711219E+002	
-4.58032215E+000	-1.17733631E+002	
-4.55960885E+000	-1.17700985E+002	
-4.53889554E+000	-1.17734849E+002	
-4.51818224E+000	-1.17661569E+002	
-4.49746893E+000	-1.17613661E+002	
-4.47675563E+000	-1.17656900E+002	
-4.45604232E+000	-1.17638568E+002	
-4.43532902E+000	-1.17644947E+002	
-4.41461571E+000	-1.17643668E+002	
-4.39390241E+000	-1.17655038E+002	
-4.37318910E+000	-1.17663135E+002	
-4.35247580E+000	-1.17648432E+002	
-4.33176249E+000	-1.17646864E+002	
-4.31104919E+000	-1.17642928E+002	
-4.29033588E+000	-1.17641020E+002	
-4.26962257E+000	-1.17637363E+002	
-4.24890927E+000	-1.17684161E+002	
-4.22819596E+000	-1.17689454E+002	
-4.20748266E+000	-1.17721792E+002	
-4.18676935E+000	-1.17685797E+002	
-4.16605605E+000	-1.17693299E+002	
-4.14534274E+000	-1.17695912E+002	
-4.12462944E+000	-1.17648996E+002	
-4.10391613E+000	-1.17639207E+002	
-4.08320283E+000	-1.17627002E+002	
-4.06248952E+000	-1.17612628E+002	
-4.04177622E+000	-1.17574180E+002	
-4.02106291E+000	-1.17611448E+002	
-4.00034961E+000	-1.17616760E+002	
-3.97963630E+000	-1.17577135E+002	
-3.95892299E+000	-1.17583218E+002	
-3.93820969E+000	-1.17552544E+002	
-3.91749638E+000	-1.17566515E+002	
-3.89678308E+000	-1.17536708E+002	
-3.87606977E+000	-1.17473151E+002	
-3.85535647E+000	-1.17481367E+002	
-3.83464316E+000	-1.17466785E+002	
-3.81392986E+000	-1.17466019E+002	
-3.79321655E+000	-1.17495453E+002	
-3.77250325E+000	-1.17453831E+002	
-3.75178994E+000	-1.17464889E+002	
-3.73107664E+000	-1.17463451E+002	
-3.71036333E+000	-1.17403897E+002	
-3.68965003E+000	-1.17419179E+002	
-3.66893672E+000	-1.17466897E+002	
-3.64822342E+000	-1.17436174E+002	
-3.62751011E+000	-1.17452571E+002	
-3.60679680E+000	-1.17459203E+002	
-3.58608350E+000	-1.17464992E+002	
-3.56537019E+000	-1.17490766E+002	
-3.54465689E+000	-1.17488731E+002	
-3.52394358E+000	-1.17503592E+002	
-3.50323028E+000	-1.17543111E+002	
-3.48251697E+000	-1.17582547E+002	
-3.46180367E+000	-1.17621417E+002	
-3.44109036E+000	-1.17640672E+002	
-3.42037706E+000	-1.17672399E+002	
-3.39966375E+000	-1.17721698E+002	
-3.37895045E+000	-1.17769126E+002	
-3.35823714E+000	-1.17766191E+002	
-3.33752384E+000	-1.17773680E+002	
-3.31681053E+000	-1.17774307E+002	
-3.29609722E+000	-1.17748246E+002	
-3.27538392E+000	-1.17764465E+002	
-3.25467061E+000	-1.17785363E+002	
-3.23395731E+000	-1.17786225E+002	
-3.21324400E+000	-1.17817611E+002	
-3.19253070E+000	-1.17819350E+002	
-3.17181739E+000	-1.17783487E+002	
-3.15110409E+000	-1.17761845E+002	
-3.13039078E+000	-1.17759385E+002	
-3.10967748E+000	-1.17799050E+002	
-3.08896417E+000	-1.17771956E+002	
-3.06825087E+000	-1.17754846E+002	
-3.04753756E+000	-1.17795311E+002	
-3.02682426E+000	-1.17775203E+002	
-3.00611095E+000	-1.17706167E+002	
-2.98539764E+000	-1.17749451E+002	
-2.96468434E+000	-1.17711199E+002	
-2.94397103E+000	-1.17684287E+002	
-2.92325773E+000	-1.17638488E+002	
-2.90254442E+000	-1.17623567E+002	
-2.88183112E+000	-1.17642278E+002	
-2.86111781E+000	-1.17682153E+002	
-2.84040451E+000	-1.17722000E+002	
-2.81969120E+000	-1.17756059E+002	
-2.79897790E+000	-1.17822045E+002	
-2.77826459E+000	-1.17790891E+002	
-2.75755129E+000	-1.17759590E+002	
-2.73683798E+000	-1.17764922E+002	
-2.71612468E+000	-1.17717454E+002	
-2.69541137E+000	-1.17710671E+002	
-2.67469807E+000	-1.17778636E+002	
-2.65398476E+000	-1.17808680E+002	
-2.63327145E+000	-1.17803812E+002	
-2.61255815E+000	-1.17754482E+002	
-2.59184484E+000	-1.17765417E+002	
-2.57113154E+000	-1.17765506E+002	
-2.55041823E+000	-1.17751129E+002	
-2.52970493E+000	-1.17805615E+002	
-2.50899162E+000	-1.17876753E+002	
-2.48827832E+000	-1.17859680E+002	
-2.46756501E+000	-1.17867231E+002	
-2.44685171E+000	-1.17864425E+002	
-2.42613840E+000	-1.17893841E+002	
-2.40542510E+000	-1.17916054E+002	
-2.38471179E+000	-1.17909294E+002	
-2.36399849E+000	-1.17891103E+002	
-2.34328518E+000	-1.17836669E+002	
-2.32257187E+000	-1.17793643E+002	
-2.30185857E+000	-1.17725352E+002	
-2.28114526E+000	-1.17735039E+002	
-2.26043196E+000	-1.17800682E+002	
-2.23971865E+000	-1.17779210E+002	
-2.21900535E+000	-1.17829576E+002	
-2.19829204E+000	-1.17856849E+002	
-2.17757874E+000	-1.17821297E+002	
-2.15686543E+000	-1.17804580E+002	
-2.13615213E+000	-1.17846972E+002	
-2.11543882E+000	-1.17848123E+002	
-2.09472552E+000	-1.17866357E+002	
-2.07401221E+000	-1.17845443E+002	
-2.05329891E+000	-1.17809205E+002	
-2.03258560E+000	-1.17828806E+002	
-2.01187229E+000	-1.17832259E+002	
-1.99115899E+000	-1.17825678E+002	
-1.97044568E+000	-1.17764457E+002	
-1.94973238E+000	-1.17784320E+002	
-1.92901907E+000	-1.17761999E+002	
-1.90830577E+000	-1.17709166E+002	
-1.88759246E+000	-1.17693087E+002	
-1.86687916E+000	-1.17713991E+002	
-1.84616585E+000	-1.17683881E+002	
-1.82545255E+000	-1.17762979E+002	
-1.80473924E+000	-1.17764211E+002	
-1.78402594E+000	-1.17796601E+002	
-1.76331263E+000	-1.17799189E+002	
-1.74259933E+000	-1.17764819E+002	
-1.72188602E+000	-1.17762687E+002	
-1.70117272E+000	-1.17815385E+002	
-1.68045941E+000	-1.17822607E+002	
-1.65974610E+000	-1.17774066E+002	
-1.63903280E+000	-1.17741591E+002	
-1.61831949E+000	-1.17795144E+002	
-1.59760619E+000	-1.17799378E+002	
-1.57689288E+000	-1.17809132E+002	
-1.55617958E+000	-1.17865468E+002	
-1.53546627E+000	-1.17850277E+002	
-1.51475297E+000	-1.17842455E+002	
-1.49403966E+000	-1.17808047E+002	
-1.47332636E+000	-1.17840541E+002	
-1.45261305E+000	-1.17809947E+002	
-1.43189975E+000	-1.17808337E+002	
-1.41118644E+000	-1.17798134E+002	
-1.39047314E+000	-1.17814525E+002	
-1.36975983E+000	-1.17778312E+002	
-1.34904652E+000	-1.17785280E+002	
-1.32833322E+000	-1.17735798E+002	
-1.30761991E+000	-1.17700565E+002	
-1.28690661E+000	-1.17701009E+002	
-1.26619330E+000	-1.17684026E+002	
-1.24548000E+000	-1.17721030E+002	
-1.22476669E+000	-1.17751700E+002	
-1.20405339E+000	-1.17659797E+002	
-1.18334008E+000	-1.17658238E+002	
-1.16262678E+000	-1.17728805E+002	
-1.14191347E+000	-1.17747891E+002	
-1.12120017E+000	-1.17740075E+002	
-1.10048686E+000	-1.17713061E+002	
-1.07977356E+000	-1.17719402E+002	
-1.05906025E+000	-1.17741610E+002	
-1.03834694E+000	-1.17709244E+002	
-1.01763364E+000	-1.17657557E+002	
-9.96920334E-001	-1.17615250E+002	
-9.76207029E-001	-1.17602151E+002	
-9.55493724E-001	-1.17620329E+002	
-9.34780418E-001	-1.17641278E+002	
-9.14067113E-001	-1.17704210E+002	
-8.93353808E-001	-1.17699796E+002	
-8.72640502E-001	-1.17683647E+002	
-8.51927197E-001	-1.17722519E+002	
-8.31213892E-001	-1.17746843E+002	
-8.10500586E-001	-1.17793598E+002	
-7.89787281E-001	-1.17810035E+002	
-7.69073976E-001	-1.17821818E+002	
-7.48360671E-001	-1.17805440E+002	
-7.27647365E-001	-1.17796930E+002	
-7.06934060E-001	-1.17835218E+002	
-6.86220755E-001	-1.17859883E+002	
-6.65507449E-001	-1.17885443E+002	
-6.44794144E-001	-1.17884145E+002	
-6.24080839E-001	-1.17850525E+002	
-6.03367533E-001	-1.17843141E+002	
-5.82654228E-001	-1.17819916E+002	
-5.61940923E-001	-1.17766365E+002	
-5.41227617E-001	-1.17737240E+002	
-5.20514312E-001	-1.17749569E+002	
-4.99801007E-001	-1.17821709E+002	
-4.79087701E-001	-1.17885101E+002	
-4.58374396E-001	-1.17903951E+002	
-4.37661091E-001	-1.17867525E+002	
-4.16947785E-001	-1.17818132E+002	
-3.96234480E-001	-1.17807438E+002	
-3.75521175E-001	-1.17823471E+002	
-3.54807869E-001	-1.17816207E+002	
-3.34094564E-001	-1.17827570E+002	
-3.13381259E-001	-1.17857643E+002	
-2.92667954E-001	-1.17857264E+002	
-2.71954648E-001	-1.17814865E+002	
-2.51241343E-001	-1.04797898E+002	
-2.30528038E-001	-1.04552608E+002	
-2.09814732E-001	-1.04551359E+002	
-1.89101427E-001	-1.04546694E+002	
-1.68388122E-001	-1.04540830E+002	
-1.47674816E-001	-1.04538605E+002	
-1.26961511E-001	-1.04538018E+002	
-1.06248206E-001	-1.04532627E+002	
-8.55349003E-002	-1.04530909E+002	
-6.48215950E-002	-1.04529946E+002	
-4.41082897E-002	-1.04531111E+002	
-2.33949844E-002	-1.04529707E+002	
-2.68167905E-003	-1.04529026E+002	
1.80316263E-002	-1.04524139E+002	
3.87449316E-002	-1.04521714E+002	
5.94582369E-002	-1.04522273E+002	
8.01715422E-002	-1.04523910E+002	
1.00884848E-001	-1.04523036E+002	
1.21598153E-001	-1.04518594E+002	
1.42311458E-001	-1.04517348E+002	
1.63024763E-001	-1.04516581E+002	
1.83738069E-001	-1.04513617E+002	
2.04451374E-001	-1.04509692E+002	
2.25164679E-001	-1.04511004E+002	
2.45877985E-001	-1.10526124E+002	
2.66591290E-001	-1.17012310E+002	
2.87304595E-001	-1.17016580E+002	
3.08017901E-001	-1.17070000E+002	
3.28731206E-001	-1.17120893E+002	
3.49444511E-001	-1.17128216E+002	
3.70157817E-001	-1.17168395E+002	
3.90871122E-001	-1.17242496E+002	
4.11584427E-001	-1.17213972E+002	
4.32297733E-001	-1.17192824E+002	
4.53011038E-001	-1.17183366E+002	
4.73724343E-001	-1.17199009E+002	
4.94437649E-001	-1.17188599E+002	
5.15150954E-001	-1.17223279E+002	
5.35864259E-001	-1.17235388E+002	
5.56577565E-001	-1.17271534E+002	
5.77290870E-001	-1.17224473E+002	
5.98004175E-001	-1.17187109E+002	
6.18717481E-001	-1.17237688E+002	
6.39430786E-001	-1.17251612E+002	
6.60144091E-001	-1.17237257E+002	
6.80857396E-001	-1.17263272E+002	
7.01570702E-001	-1.17286708E+002	
7.22284007E-001	-1.17295226E+002	
7.42997312E-001	-1.17277644E+002	
7.63710618E-001	-1.17273363E+002	
7.84423923E-001	-1.17248517E+002	
8.05137228E-001	-1.17233684E+002	
8.25850534E-001	-1.17224001E+002	
8.46563839E-001	-1.17196521E+002	
8.67277144E-001	-1.17170143E+002	
8.87990450E-001	-1.17160937E+002	
9.08703755E-001	-1.17260980E+002	
9.29417060E-001	-1.17319881E+002	
9.50130366E-001	-1.17361112E+002	
9.70843671E-001	-1.17326859E+002	
9.91556976E-001	-1.17313576E+002	
1.01227028E+000	-1.17352122E+002	
1.03298359E+000	-1.17337602E+002	
1.05369689E+000	-1.17306306E+002	
1.07441020E+000	-1.17330200E+002	
1.09512350E+000	-1.17368275E+002	
1.11583681E+000	-1.17425894E+002	
1.13655011E+000	-1.17417530E+002	
1.15726342E+000	-1.17406140E+002	
1.17797672E+000	-1.17380483E+002	
1.19869003E+000	-1.17434372E+002	
1.21940333E+000	-1.17410425E+002	
1.24011664E+000	-1.17421345E+002	
1.26082995E+000	-1.17405389E+002	
1.28154325E+000	-1.17411981E+002	
1.30225656E+000	-1.17424521E+002	
1.32296986E+000	-1.17422540E+002	
1.34368317E+000	-1.17453711E+002	
1.36439647E+000	-1.17527183E+002	
1.38510978E+000	-1.17529637E+002	
1.40582308E+000	-1.17456167E+002	
1.42653639E+000	-1.17443508E+002	
1.44724969E+000	-1.17413457E+002	
1.46796300E+000	-1.17427863E+002	
1.48867630E+000	-1.17451854E+002	
1.50938961E+000	-1.17440867E+002	
1.53010291E+000	-1.17453819E+002	
1.55081622E+000	-1.17450501E+002	
1.57152953E+000	-1.17444144E+002	
