Acquired on 5/10/2021 at 11:34:28
Calibrated on 5/10/2021 at 10:35:08
Device Descriptor:  [none]
Scan Range (nm):  1539.624  --  1560.517
Measurement Type:  Reflection
Group Index:  1.500
Gain:  24 dB
Domain:  Time
Spatial Resolution (mm):  50.000000
Frequency domain window was applied to measurement data.
Number of Data Points (in this file):  16384
NOTE: Data stored in this file is decimated by a factor of 64.

Time (ns)	Amplitude (dB)	
-1.00072081E+001	-1.20330950E+002	
-9.98649484E+000	-1.19997488E+002	
-9.96578154E+000	-1.19671495E+002	
-9.94506823E+000	-1.19416729E+002	
-9.92435493E+000	-1.19185331E+002	
-9.90364162E+000	-1.18951619E+002	
-9.88292832E+000	-1.18741470E+002	
-9.86221501E+000	-1.18524153E+002	
-9.84150171E+000	-1.18332178E+002	
-9.82078840E+000	-1.18152404E+002	
-9.80007509E+000	-1.17948790E+002	
-9.77936179E+000	-1.17760604E+002	
-9.75864848E+000	-1.17702836E+002	
-9.73793518E+000	-1.17734462E+002	
-9.71722187E+000	-1.17734309E+002	
-9.69650857E+000	-1.17740462E+002	
-9.67579526E+000	-1.17813525E+002	
-9.65508196E+000	-1.17795503E+002	
-9.63436865E+000	-1.17738798E+002	
-9.61365535E+000	-1.17739749E+002	
-9.59294204E+000	-1.17752567E+002	
-9.57222874E+000	-1.17791795E+002	
-9.55151543E+000	-1.17819461E+002	
-9.53080213E+000	-1.17795725E+002	
-9.51008882E+000	-1.17823333E+002	
-9.48937552E+000	-1.17844179E+002	
-9.46866221E+000	-1.17832835E+002	
-9.44794890E+000	-1.17807022E+002	
-9.42723560E+000	-1.17757488E+002	
-9.40652229E+000	-1.17742072E+002	
-9.38580899E+000	-1.17707001E+002	
-9.36509568E+000	-1.17696929E+002	
-9.34438238E+000	-1.17649853E+002	
-9.32366907E+000	-1.17622308E+002	
-9.30295577E+000	-1.17626386E+002	
-9.28224246E+000	-1.17633318E+002	
-9.26152916E+000	-1.17585388E+002	
-9.24081585E+000	-1.17515943E+002	
-9.22010255E+000	-1.17492205E+002	
-9.19938924E+000	-1.17528439E+002	
-9.17867594E+000	-1.17498321E+002	
-9.15796263E+000	-1.17488337E+002	
-9.13724932E+000	-1.17546989E+002	
-9.11653602E+000	-1.17554453E+002	
-9.09582271E+000	-1.17533099E+002	
-9.07510941E+000	-1.17522073E+002	
-9.05439610E+000	-1.17512966E+002	
-9.03368280E+000	-1.17400375E+002	
-9.01296949E+000	-1.17392031E+002	
-8.99225619E+000	-1.17398189E+002	
-8.97154288E+000	-1.17442345E+002	
-8.95082958E+000	-1.17454099E+002	
-8.93011627E+000	-1.17479785E+002	
-8.90940297E+000	-1.17508206E+002	
-8.88868966E+000	-1.17533519E+002	
-8.86797636E+000	-1.17522086E+002	
-8.84726305E+000	-1.17535752E+002	
-8.82654974E+000	-1.17520041E+002	
-8.80583644E+000	-1.17536910E+002	
-8.78512313E+000	-1.17525870E+002	
-8.76440983E+000	-1.17528689E+002	
-8.74369652E+000	-1.17593046E+002	
-8.72298322E+000	-1.17622129E+002	
-8.70226991E+000	-1.17557152E+002	
-8.68155661E+000	-1.17530925E+002	
-8.66084330E+000	-1.17561230E+002	
-8.64013000E+000	-1.17518707E+002	
-8.61941669E+000	-1.17468596E+002	
-8.59870339E+000	-1.17487490E+002	
-8.57799008E+000	-1.17484826E+002	
-8.55727678E+000	-1.17454512E+002	
-8.53656347E+000	-1.17571703E+002	
-8.51585017E+000	-1.17579495E+002	
-8.49513686E+000	-1.17575296E+002	
-8.47442355E+000	-1.17560649E+002	
-8.45371025E+000	-1.17576519E+002	
-8.43299694E+000	-1.17604826E+002	
-8.41228364E+000	-1.17573994E+002	
-8.39157033E+000	-1.17561177E+002	
-8.37085703E+000	-1.17605603E+002	
-8.35014372E+000	-1.17622263E+002	
-8.32943042E+000	-1.17649678E+002	
-8.30871711E+000	-1.17600880E+002	
-8.28800381E+000	-1.17638230E+002	
-8.26729050E+000	-1.17637689E+002	
-8.24657720E+000	-1.17630263E+002	
-8.22586389E+000	-1.17604714E+002	
-8.20515059E+000	-1.17652700E+002	
-8.18443728E+000	-1.17655138E+002	
-8.16372397E+000	-1.17638539E+002	
-8.14301067E+000	-1.17609496E+002	
-8.12229736E+000	-1.17625753E+002	
-8.10158406E+000	-1.17631307E+002	
-8.08087075E+000	-1.17629818E+002	
-8.06015745E+000	-1.17610628E+002	
-8.03944414E+000	-1.17563129E+002	
-8.01873084E+000	-1.17585328E+002	
-7.99801753E+000	-1.17579248E+002	
-7.97730423E+000	-1.17573651E+002	
-7.95659092E+000	-1.17544882E+002	
-7.93587762E+000	-1.17566385E+002	
-7.91516431E+000	-1.17602877E+002	
-7.89445101E+000	-1.17594615E+002	
-7.87373770E+000	-1.17570178E+002	
-7.85302439E+000	-1.17561541E+002	
-7.83231109E+000	-1.17538376E+002	
-7.81159778E+000	-1.17582318E+002	
-7.79088448E+000	-1.17605594E+002	
-7.77017117E+000	-1.17629183E+002	
-7.74945787E+000	-1.17645322E+002	
-7.72874456E+000	-1.17668947E+002	
-7.70803126E+000	-1.17633225E+002	
-7.68731795E+000	-1.17669488E+002	
-7.66660465E+000	-1.17664127E+002	
-7.64589134E+000	-1.17662581E+002	
-7.62517804E+000	-1.17666929E+002	
-7.60446473E+000	-1.17590792E+002	
-7.58375143E+000	-1.17609885E+002	
-7.56303812E+000	-1.17646142E+002	
-7.54232482E+000	-1.17708315E+002	
-7.52161151E+000	-1.17698130E+002	
-7.50089820E+000	-1.17713637E+002	
-7.48018490E+000	-1.17697022E+002	
-7.45947159E+000	-1.17742227E+002	
-7.43875829E+000	-1.17670368E+002	
-7.41804498E+000	-1.17590049E+002	
-7.39733168E+000	-1.17625653E+002	
-7.37661837E+000	-1.17631651E+002	
-7.35590507E+000	-1.17641398E+002	
-7.33519176E+000	-1.17668805E+002	
-7.31447846E+000	-1.17692255E+002	
-7.29376515E+000	-1.17679734E+002	
-7.27305185E+000	-1.17652557E+002	
-7.25233854E+000	-1.17676667E+002	
-7.23162524E+000	-1.17669873E+002	
-7.21091193E+000	-1.17660674E+002	
-7.19019862E+000	-1.17648395E+002	
-7.16948532E+000	-1.17691675E+002	
-7.14877201E+000	-1.17762755E+002	
-7.12805871E+000	-1.17806759E+002	
-7.10734540E+000	-1.17884423E+002	
-7.08663210E+000	-1.17924244E+002	
-7.06591879E+000	-1.17898284E+002	
-7.04520549E+000	-1.17885484E+002	
-7.02449218E+000	-1.17862401E+002	
-7.00377888E+000	-1.17827090E+002	
-6.98306557E+000	-1.17855495E+002	
-6.96235227E+000	-1.17823528E+002	
-6.94163896E+000	-1.17860947E+002	
-6.92092566E+000	-1.17919576E+002	
-6.90021235E+000	-1.17925217E+002	
-6.87949904E+000	-1.17900520E+002	
-6.85878574E+000	-1.17878151E+002	
-6.83807243E+000	-1.17894860E+002	
-6.81735913E+000	-1.17906518E+002	
-6.79664582E+000	-1.17853325E+002	
-6.77593252E+000	-1.17877074E+002	
-6.75521921E+000	-1.17830699E+002	
-6.73450591E+000	-1.17828487E+002	
-6.71379260E+000	-1.17802319E+002	
-6.69307930E+000	-1.17793805E+002	
-6.67236599E+000	-1.17753770E+002	
-6.65165269E+000	-1.17736186E+002	
-6.63093938E+000	-1.17742579E+002	
-6.61022608E+000	-1.17756298E+002	
-6.58951277E+000	-1.17747541E+002	
-6.56879947E+000	-1.17735784E+002	
-6.54808616E+000	-1.17706994E+002	
-6.52737285E+000	-1.17691586E+002	
-6.50665955E+000	-1.17725467E+002	
-6.48594624E+000	-1.17764044E+002	
-6.46523294E+000	-1.17794837E+002	
-6.44451963E+000	-1.17725889E+002	
-6.42380633E+000	-1.17682184E+002	
-6.40309302E+000	-1.17671561E+002	
-6.38237972E+000	-1.17644686E+002	
-6.36166641E+000	-1.17645336E+002	
-6.34095311E+000	-1.17649084E+002	
-6.32023980E+000	-1.17642955E+002	
-6.29952650E+000	-1.17663966E+002	
-6.27881319E+000	-1.17637824E+002	
-6.25809989E+000	-1.17651857E+002	
-6.23738658E+000	-1.17650705E+002	
-6.21667327E+000	-1.17643439E+002	
-6.19595997E+000	-1.17660979E+002	
-6.17524666E+000	-1.17651379E+002	
-6.15453336E+000	-1.17651869E+002	
-6.13382005E+000	-1.17633518E+002	
-6.11310675E+000	-1.17638249E+002	
-6.09239344E+000	-1.17635935E+002	
-6.07168014E+000	-1.17593741E+002	
-6.05096683E+000	-1.17664489E+002	
-6.03025353E+000	-1.17674124E+002	
-6.00954022E+000	-1.17644168E+002	
-5.98882692E+000	-1.17598723E+002	
-5.96811361E+000	-1.17608518E+002	
-5.94740031E+000	-1.17653359E+002	
-5.92668700E+000	-1.17703217E+002	
-5.90597369E+000	-1.17713687E+002	
-5.88526039E+000	-1.17767863E+002	
-5.86454708E+000	-1.17794267E+002	
-5.84383378E+000	-1.17763101E+002	
-5.82312047E+000	-1.17771806E+002	
-5.80240717E+000	-1.17734170E+002	
-5.78169386E+000	-1.17745660E+002	
-5.76098056E+000	-1.17749710E+002	
-5.74026725E+000	-1.17742006E+002	
-5.71955395E+000	-1.17772861E+002	
-5.69884064E+000	-1.17773594E+002	
-5.67812734E+000	-1.17789869E+002	
-5.65741403E+000	-1.17784568E+002	
-5.63670073E+000	-1.17794695E+002	
-5.61598742E+000	-1.17771144E+002	
-5.59527412E+000	-1.17731619E+002	
-5.57456081E+000	-1.17795757E+002	
-5.55384750E+000	-1.17723078E+002	
-5.53313420E+000	-1.17657607E+002	
-5.51242089E+000	-1.17685177E+002	
-5.49170759E+000	-1.17688357E+002	
-5.47099428E+000	-1.17665637E+002	
-5.45028098E+000	-1.17713709E+002	
-5.42956767E+000	-1.17754527E+002	
-5.40885437E+000	-1.17738830E+002	
-5.38814106E+000	-1.17727346E+002	
-5.36742776E+000	-1.17705762E+002	
-5.34671445E+000	-1.17739329E+002	
-5.32600115E+000	-1.17745507E+002	
-5.30528784E+000	-1.17765611E+002	
-5.28457454E+000	-1.17750500E+002	
-5.26386123E+000	-1.17732263E+002	
-5.24314792E+000	-1.17678966E+002	
-5.22243462E+000	-1.17659977E+002	
-5.20172131E+000	-1.17657920E+002	
-5.18100801E+000	-1.17629157E+002	
-5.16029470E+000	-1.17630410E+002	
-5.13958140E+000	-1.17588285E+002	
-5.11886809E+000	-1.17567751E+002	
-5.09815479E+000	-1.17578204E+002	
-5.07744148E+000	-1.17543690E+002	
-5.05672818E+000	-1.17614843E+002	
-5.03601487E+000	-1.17642807E+002	
-5.01530157E+000	-1.17678060E+002	
-4.99458826E+000	-1.17683370E+002	
-4.97387496E+000	-1.17629766E+002	
-4.95316165E+000	-1.17629387E+002	
-4.93244834E+000	-1.17584748E+002	
-4.91173504E+000	-1.17571104E+002	
-4.89102173E+000	-1.17562617E+002	
-4.87030843E+000	-1.17589823E+002	
-4.84959512E+000	-1.17574252E+002	
-4.82888182E+000	-1.17534646E+002	
-4.80816851E+000	-1.17526753E+002	
-4.78745521E+000	-1.17532858E+002	
-4.76674190E+000	-1.17554826E+002	
-4.74602860E+000	-1.17568498E+002	
-4.72531529E+000	-1.17620006E+002	
-4.70460199E+000	-1.17611158E+002	
-4.68388868E+000	-1.17650271E+002	
-4.66317538E+000	-1.17632786E+002	
-4.64246207E+000	-1.17677932E+002	
-4.62174877E+000	-1.17724075E+002	
-4.60103546E+000	-1.17752401E+002	
-4.58032215E+000	-1.17770027E+002	
-4.55960885E+000	-1.17730837E+002	
-4.53889554E+000	-1.17761876E+002	
-4.51818224E+000	-1.17689745E+002	
-4.49746893E+000	-1.17645330E+002	
-4.47675563E+000	-1.17689632E+002	
-4.45604232E+000	-1.17675432E+002	
-4.43532902E+000	-1.17677818E+002	
-4.41461571E+000	-1.17673160E+002	
-4.39390241E+000	-1.17679846E+002	
-4.37318910E+000	-1.17685258E+002	
-4.35247580E+000	-1.17670382E+002	
-4.33176249E+000	-1.17665631E+002	
-4.31104919E+000	-1.17659521E+002	
-4.29033588E+000	-1.17652366E+002	
-4.26962257E+000	-1.17645836E+002	
-4.24890927E+000	-1.17690249E+002	
-4.22819596E+000	-1.17693115E+002	
-4.20748266E+000	-1.17726652E+002	
-4.18676935E+000	-1.17691719E+002	
-4.16605605E+000	-1.17695695E+002	
-4.14534274E+000	-1.17702648E+002	
-4.12462944E+000	-1.17653580E+002	
-4.10391613E+000	-1.17647598E+002	
-4.08320283E+000	-1.17638839E+002	
-4.06248952E+000	-1.17630202E+002	
-4.04177622E+000	-1.17584618E+002	
-4.02106291E+000	-1.17612377E+002	
-4.00034961E+000	-1.17609566E+002	
-3.97963630E+000	-1.17572225E+002	
-3.95892299E+000	-1.17573845E+002	
-3.93820969E+000	-1.17540867E+002	
-3.91749638E+000	-1.17552679E+002	
-3.89678308E+000	-1.17524435E+002	
-3.87606977E+000	-1.17463472E+002	
-3.85535647E+000	-1.17459836E+002	
-3.83464316E+000	-1.17446457E+002	
-3.81392986E+000	-1.17449820E+002	
-3.79321655E+000	-1.17479935E+002	
-3.77250325E+000	-1.17434910E+002	
-3.75178994E+000	-1.17450942E+002	
-3.73107664E+000	-1.17457063E+002	
-3.71036333E+000	-1.17396364E+002	
-3.68965003E+000	-1.17410670E+002	
-3.66893672E+000	-1.17462005E+002	
-3.64822342E+000	-1.17430867E+002	
-3.62751011E+000	-1.17452070E+002	
-3.60679680E+000	-1.17453593E+002	
-3.58608350E+000	-1.17458587E+002	
-3.56537019E+000	-1.17480436E+002	
-3.54465689E+000	-1.17481946E+002	
-3.52394358E+000	-1.17506038E+002	
-3.50323028E+000	-1.17550828E+002	
-3.48251697E+000	-1.17585155E+002	
-3.46180367E+000	-1.17625579E+002	
-3.44109036E+000	-1.17648540E+002	
-3.42037706E+000	-1.17682032E+002	
-3.39966375E+000	-1.17728746E+002	
-3.37895045E+000	-1.17781688E+002	
-3.35823714E+000	-1.17782906E+002	
-3.33752384E+000	-1.17787428E+002	
-3.31681053E+000	-1.17781635E+002	
-3.29609722E+000	-1.17757840E+002	
-3.27538392E+000	-1.17777367E+002	
-3.25467061E+000	-1.17795493E+002	
-3.23395731E+000	-1.17788170E+002	
-3.21324400E+000	-1.17821107E+002	
-3.19253070E+000	-1.17828074E+002	
-3.17181739E+000	-1.17790372E+002	
-3.15110409E+000	-1.17770458E+002	
-3.13039078E+000	-1.17762446E+002	
-3.10967748E+000	-1.17802471E+002	
-3.08896417E+000	-1.17777174E+002	
-3.06825087E+000	-1.17762317E+002	
-3.04753756E+000	-1.17795928E+002	
-3.02682426E+000	-1.17771746E+002	
-3.00611095E+000	-1.17703919E+002	
-2.98539764E+000	-1.17754296E+002	
-2.96468434E+000	-1.17715739E+002	
-2.94397103E+000	-1.17691566E+002	
-2.92325773E+000	-1.17649116E+002	
-2.90254442E+000	-1.17635511E+002	
-2.88183112E+000	-1.17651622E+002	
-2.86111781E+000	-1.17692960E+002	
-2.84040451E+000	-1.17737504E+002	
-2.81969120E+000	-1.17774475E+002	
-2.79897790E+000	-1.17842052E+002	
-2.77826459E+000	-1.17816460E+002	
-2.75755129E+000	-1.17782732E+002	
-2.73683798E+000	-1.17795368E+002	
-2.71612468E+000	-1.17745139E+002	
-2.69541137E+000	-1.17734119E+002	
-2.67469807E+000	-1.17803258E+002	
-2.65398476E+000	-1.17834673E+002	
-2.63327145E+000	-1.17831826E+002	
-2.61255815E+000	-1.17776918E+002	
-2.59184484E+000	-1.17784810E+002	
-2.57113154E+000	-1.17784952E+002	
-2.55041823E+000	-1.17775365E+002	
-2.52970493E+000	-1.17831430E+002	
-2.50899162E+000	-1.17895971E+002	
-2.48827832E+000	-1.17878077E+002	
-2.46756501E+000	-1.17889234E+002	
-2.44685171E+000	-1.17890858E+002	
-2.42613840E+000	-1.17917991E+002	
-2.40542510E+000	-1.17938528E+002	
-2.38471179E+000	-1.17923534E+002	
-2.36399849E+000	-1.17908525E+002	
-2.34328518E+000	-1.17857023E+002	
-2.32257187E+000	-1.17811108E+002	
-2.30185857E+000	-1.17742945E+002	
-2.28114526E+000	-1.17745966E+002	
-2.26043196E+000	-1.17817273E+002	
-2.23971865E+000	-1.17793084E+002	
-2.21900535E+000	-1.17843232E+002	
-2.19829204E+000	-1.17870085E+002	
-2.17757874E+000	-1.17830437E+002	
-2.15686543E+000	-1.17808603E+002	
-2.13615213E+000	-1.17853322E+002	
-2.11543882E+000	-1.17863316E+002	
-2.09472552E+000	-1.17885628E+002	
-2.07401221E+000	-1.17860695E+002	
-2.05329891E+000	-1.17819026E+002	
-2.03258560E+000	-1.17835034E+002	
-2.01187229E+000	-1.17835190E+002	
-1.99115899E+000	-1.17833317E+002	
-1.97044568E+000	-1.17768623E+002	
-1.94973238E+000	-1.17778949E+002	
-1.92901907E+000	-1.17759369E+002	
-1.90830577E+000	-1.17712905E+002	
-1.88759246E+000	-1.17702949E+002	
-1.86687916E+000	-1.17718536E+002	
-1.84616585E+000	-1.17689128E+002	
-1.82545255E+000	-1.17770704E+002	
-1.80473924E+000	-1.17771786E+002	
-1.78402594E+000	-1.17803102E+002	
-1.76331263E+000	-1.17804904E+002	
-1.74259933E+000	-1.17771890E+002	
-1.72188602E+000	-1.17762890E+002	
-1.70117272E+000	-1.17818339E+002	
-1.68045941E+000	-1.17834184E+002	
-1.65974610E+000	-1.17789947E+002	
-1.63903280E+000	-1.17758326E+002	
-1.61831949E+000	-1.17805052E+002	
-1.59760619E+000	-1.17806975E+002	
-1.57689288E+000	-1.17819563E+002	
-1.55617958E+000	-1.17877433E+002	
-1.53546627E+000	-1.17860830E+002	
-1.51475297E+000	-1.17855181E+002	
-1.49403966E+000	-1.17821995E+002	
-1.47332636E+000	-1.17853506E+002	
-1.45261305E+000	-1.17823991E+002	
-1.43189975E+000	-1.17826202E+002	
-1.41118644E+000	-1.17807125E+002	
-1.39047314E+000	-1.17822880E+002	
-1.36975983E+000	-1.17794726E+002	
-1.34904652E+000	-1.17792948E+002	
-1.32833322E+000	-1.17743720E+002	
-1.30761991E+000	-1.17704483E+002	
-1.28690661E+000	-1.17705510E+002	
-1.26619330E+000	-1.17688171E+002	
-1.24548000E+000	-1.17727486E+002	
-1.22476669E+000	-1.17768988E+002	
-1.20405339E+000	-1.17674675E+002	
-1.18334008E+000	-1.17666785E+002	
-1.16262678E+000	-1.17732721E+002	
-1.14191347E+000	-1.17753425E+002	
-1.12120017E+000	-1.17744455E+002	
-1.10048686E+000	-1.17722361E+002	
-1.07977356E+000	-1.17726512E+002	
-1.05906025E+000	-1.17751425E+002	
-1.03834694E+000	-1.17732982E+002	
-1.01763364E+000	-1.17687216E+002	
-9.96920334E-001	-1.17651735E+002	
-9.76207029E-001	-1.17637432E+002	
-9.55493724E-001	-1.17650070E+002	
-9.34780418E-001	-1.17664908E+002	
-9.14067113E-001	-1.17730319E+002	
-8.93353808E-001	-1.17730719E+002	
-8.72640502E-001	-1.17708292E+002	
-8.51927197E-001	-1.17750110E+002	
-8.31213892E-001	-1.17779950E+002	
-8.10500586E-001	-1.17829715E+002	
-7.89787281E-001	-1.17846108E+002	
-7.69073976E-001	-1.17861888E+002	
-7.48360671E-001	-1.17841875E+002	
-7.27647365E-001	-1.17830373E+002	
-7.06934060E-001	-1.17876264E+002	
-6.86220755E-001	-1.17904822E+002	
-6.65507449E-001	-1.17934679E+002	
-6.44794144E-001	-1.17934670E+002	
-6.24080839E-001	-1.17904057E+002	
-6.03367533E-001	-1.17893083E+002	
-5.82654228E-001	-1.17870516E+002	
-5.61940923E-001	-1.17816300E+002	
-5.41227617E-001	-1.17770811E+002	
-5.20514312E-001	-1.17779992E+002	
-4.99801007E-001	-1.17839839E+002	
-4.79087701E-001	-1.17900765E+002	
-4.58374396E-001	-1.17918840E+002	
-4.37661091E-001	-1.17884715E+002	
-4.16947785E-001	-1.17836490E+002	
-3.96234480E-001	-1.17825861E+002	
-3.75521175E-001	-1.17841537E+002	
-3.54807869E-001	-1.17842299E+002	
-3.34094564E-001	-1.17847608E+002	
-3.13381259E-001	-1.17875913E+002	
-2.92667954E-001	-1.17878019E+002	
-2.71954648E-001	-1.17847781E+002	
-2.51241343E-001	-1.05586273E+002	
-2.30528038E-001	-1.05220449E+002	
-2.09814732E-001	-1.05218371E+002	
-1.89101427E-001	-1.05213025E+002	
-1.68388122E-001	-1.05206320E+002	
-1.47674816E-001	-1.05203428E+002	
-1.26961511E-001	-1.05202551E+002	
-1.06248206E-001	-1.05196524E+002	
-8.55349003E-002	-1.05194627E+002	
-6.48215950E-002	-1.05193656E+002	
-4.41082897E-002	-1.05195285E+002	
-2.33949844E-002	-1.05193533E+002	
-2.68167905E-003	-1.05193008E+002	
1.80316263E-002	-1.05187307E+002	
3.87449316E-002	-1.05184781E+002	
5.94582369E-002	-1.05185402E+002	
8.01715422E-002	-1.05187167E+002	
1.00884848E-001	-1.05186665E+002	
1.21598153E-001	-1.05181655E+002	
1.42311458E-001	-1.05179449E+002	
1.63024763E-001	-1.05178413E+002	
1.83738069E-001	-1.05174825E+002	
2.04451374E-001	-1.05170086E+002	
2.25164679E-001	-1.05170867E+002	
2.45877985E-001	-1.10646713E+002	
2.66591290E-001	-1.17021825E+002	
2.87304595E-001	-1.17032368E+002	
3.08017901E-001	-1.17090385E+002	
3.28731206E-001	-1.17139763E+002	
3.49444511E-001	-1.17152192E+002	
3.70157817E-001	-1.17191976E+002	
3.90871122E-001	-1.17265018E+002	
4.11584427E-001	-1.17243336E+002	
4.32297733E-001	-1.17226367E+002	
4.53011038E-001	-1.17214497E+002	
4.73724343E-001	-1.17235590E+002	
4.94437649E-001	-1.17226854E+002	
5.15150954E-001	-1.17268613E+002	
5.35864259E-001	-1.17276960E+002	
5.56577565E-001	-1.17309824E+002	
5.77290870E-001	-1.17261907E+002	
5.98004175E-001	-1.17236493E+002	
6.18717481E-001	-1.17284201E+002	
6.39430786E-001	-1.17297038E+002	
6.60144091E-001	-1.17278042E+002	
6.80857396E-001	-1.17316303E+002	
7.01570702E-001	-1.17345389E+002	
7.22284007E-001	-1.17346098E+002	
7.42997312E-001	-1.17316312E+002	
7.63710618E-001	-1.17316523E+002	
7.84423923E-001	-1.17288611E+002	
8.05137228E-001	-1.17264455E+002	
8.25850534E-001	-1.17246774E+002	
8.46563839E-001	-1.17220550E+002	
8.67277144E-001	-1.17197304E+002	
8.87990450E-001	-1.17183343E+002	
9.08703755E-001	-1.17281136E+002	
9.29417060E-001	-1.17338762E+002	
9.50130366E-001	-1.17368142E+002	
9.70843671E-001	-1.17325393E+002	
9.91556976E-001	-1.17313907E+002	
1.01227028E+000	-1.17339512E+002	
1.03298359E+000	-1.17334913E+002	
1.05369689E+000	-1.17308363E+002	
1.07441020E+000	-1.17323295E+002	
1.09512350E+000	-1.17328449E+002	
1.11583681E+000	-1.17383958E+002	
1.13655011E+000	-1.17389103E+002	
1.15726342E+000	-1.17389024E+002	
1.17797672E+000	-1.17354893E+002	
1.19869003E+000	-1.17397000E+002	
1.21940333E+000	-1.17377326E+002	
1.24011664E+000	-1.17392141E+002	
1.26082995E+000	-1.17385307E+002	
1.28154325E+000	-1.17396712E+002	
1.30225656E+000	-1.17401815E+002	
1.32296986E+000	-1.17396870E+002	
1.34368317E+000	-1.17422074E+002	
1.36439647E+000	-1.17488546E+002	
1.38510978E+000	-1.17497655E+002	
1.40582308E+000	-1.17429121E+002	
1.42653639E+000	-1.17424984E+002	
1.44724969E+000	-1.17406243E+002	
1.46796300E+000	-1.17414486E+002	
1.48867630E+000	-1.17442080E+002	
1.50938961E+000	-1.17427293E+002	
1.53010291E+000	-1.17422452E+002	
1.55081622E+000	-1.17405684E+002	
1.57152953E+000	-1.17405761E+002	
