Acquired on 5/10/2021 at 11:39:34
Calibrated on 5/10/2021 at 10:35:08
Device Descriptor:  [none]
Scan Range (nm):  1539.624  --  1560.517
Measurement Type:  Reflection
Group Index:  1.500
Gain:  24 dB
Domain:  Time
Spatial Resolution (mm):  50.000000
Frequency domain window was applied to measurement data.
Number of Data Points (in this file):  16384
NOTE: Data stored in this file is decimated by a factor of 64.

Time (ns)	Amplitude (dB)	
-1.00072081E+001	-1.20325041E+002	
-9.98649484E+000	-1.19994761E+002	
-9.96578154E+000	-1.19667425E+002	
-9.94506823E+000	-1.19407677E+002	
-9.92435493E+000	-1.19179298E+002	
-9.90364162E+000	-1.18944457E+002	
-9.88292832E+000	-1.18729386E+002	
-9.86221501E+000	-1.18506282E+002	
-9.84150171E+000	-1.18318041E+002	
-9.82078840E+000	-1.18142411E+002	
-9.80007509E+000	-1.17937478E+002	
-9.77936179E+000	-1.17748606E+002	
-9.75864848E+000	-1.17695897E+002	
-9.73793518E+000	-1.17728843E+002	
-9.71722187E+000	-1.17727194E+002	
-9.69650857E+000	-1.17732993E+002	
-9.67579526E+000	-1.17804308E+002	
-9.65508196E+000	-1.17786717E+002	
-9.63436865E+000	-1.17731212E+002	
-9.61365535E+000	-1.17723291E+002	
-9.59294204E+000	-1.17734517E+002	
-9.57222874E+000	-1.17772460E+002	
-9.55151543E+000	-1.17800892E+002	
-9.53080213E+000	-1.17775601E+002	
-9.51008882E+000	-1.17796857E+002	
-9.48937552E+000	-1.17816642E+002	
-9.46866221E+000	-1.17804379E+002	
-9.44794890E+000	-1.17782864E+002	
-9.42723560E+000	-1.17735491E+002	
-9.40652229E+000	-1.17721081E+002	
-9.38580899E+000	-1.17687814E+002	
-9.36509568E+000	-1.17684016E+002	
-9.34438238E+000	-1.17635810E+002	
-9.32366907E+000	-1.17605964E+002	
-9.30295577E+000	-1.17613490E+002	
-9.28224246E+000	-1.17620557E+002	
-9.26152916E+000	-1.17573996E+002	
-9.24081585E+000	-1.17507742E+002	
-9.22010255E+000	-1.17483808E+002	
-9.19938924E+000	-1.17520144E+002	
-9.17867594E+000	-1.17490795E+002	
-9.15796263E+000	-1.17480427E+002	
-9.13724932E+000	-1.17540824E+002	
-9.11653602E+000	-1.17550465E+002	
-9.09582271E+000	-1.17529994E+002	
-9.07510941E+000	-1.17521846E+002	
-9.05439610E+000	-1.17510983E+002	
-9.03368280E+000	-1.17397563E+002	
-9.01296949E+000	-1.17392250E+002	
-8.99225619E+000	-1.17398187E+002	
-8.97154288E+000	-1.17441104E+002	
-8.95082958E+000	-1.17449591E+002	
-8.93011627E+000	-1.17467255E+002	
-8.90940297E+000	-1.17492906E+002	
-8.88868966E+000	-1.17517623E+002	
-8.86797636E+000	-1.17503139E+002	
-8.84726305E+000	-1.17513961E+002	
-8.82654974E+000	-1.17497430E+002	
-8.80583644E+000	-1.17512596E+002	
-8.78512313E+000	-1.17506483E+002	
-8.76440983E+000	-1.17506695E+002	
-8.74369652E+000	-1.17571380E+002	
-8.72298322E+000	-1.17594674E+002	
-8.70226991E+000	-1.17529643E+002	
-8.68155661E+000	-1.17505658E+002	
-8.66084330E+000	-1.17533600E+002	
-8.64013000E+000	-1.17487485E+002	
-8.61941669E+000	-1.17443549E+002	
-8.59870339E+000	-1.17464415E+002	
-8.57799008E+000	-1.17463602E+002	
-8.55727678E+000	-1.17435016E+002	
-8.53656347E+000	-1.17551664E+002	
-8.51585017E+000	-1.17562590E+002	
-8.49513686E+000	-1.17558810E+002	
-8.47442355E+000	-1.17545659E+002	
-8.45371025E+000	-1.17564040E+002	
-8.43299694E+000	-1.17600358E+002	
-8.41228364E+000	-1.17567942E+002	
-8.39157033E+000	-1.17556217E+002	
-8.37085703E+000	-1.17602024E+002	
-8.35014372E+000	-1.17620468E+002	
-8.32943042E+000	-1.17648319E+002	
-8.30871711E+000	-1.17600122E+002	
-8.28800381E+000	-1.17637106E+002	
-8.26729050E+000	-1.17637746E+002	
-8.24657720E+000	-1.17632928E+002	
-8.22586389E+000	-1.17613707E+002	
-8.20515059E+000	-1.17667347E+002	
-8.18443728E+000	-1.17669453E+002	
-8.16372397E+000	-1.17655239E+002	
-8.14301067E+000	-1.17620263E+002	
-8.12229736E+000	-1.17633277E+002	
-8.10158406E+000	-1.17642305E+002	
-8.08087075E+000	-1.17641673E+002	
-8.06015745E+000	-1.17622376E+002	
-8.03944414E+000	-1.17569052E+002	
-8.01873084E+000	-1.17589169E+002	
-7.99801753E+000	-1.17588647E+002	
-7.97730423E+000	-1.17585966E+002	
-7.95659092E+000	-1.17557134E+002	
-7.93587762E+000	-1.17574360E+002	
-7.91516431E+000	-1.17616144E+002	
-7.89445101E+000	-1.17608457E+002	
-7.87373770E+000	-1.17581521E+002	
-7.85302439E+000	-1.17569936E+002	
-7.83231109E+000	-1.17545754E+002	
-7.81159778E+000	-1.17587101E+002	
-7.79088448E+000	-1.17600878E+002	
-7.77017117E+000	-1.17615079E+002	
-7.74945787E+000	-1.17625057E+002	
-7.72874456E+000	-1.17641601E+002	
-7.70803126E+000	-1.17604532E+002	
-7.68731795E+000	-1.17638241E+002	
-7.66660465E+000	-1.17630860E+002	
-7.64589134E+000	-1.17637940E+002	
-7.62517804E+000	-1.17638440E+002	
-7.60446473E+000	-1.17552886E+002	
-7.58375143E+000	-1.17567173E+002	
-7.56303812E+000	-1.17603723E+002	
-7.54232482E+000	-1.17667979E+002	
-7.52161151E+000	-1.17654084E+002	
-7.50089820E+000	-1.17662608E+002	
-7.48018490E+000	-1.17643347E+002	
-7.45947159E+000	-1.17694618E+002	
-7.43875829E+000	-1.17625056E+002	
-7.41804498E+000	-1.17542070E+002	
-7.39733168E+000	-1.17573651E+002	
-7.37661837E+000	-1.17581807E+002	
-7.35590507E+000	-1.17598145E+002	
-7.33519176E+000	-1.17618445E+002	
-7.31447846E+000	-1.17641696E+002	
-7.29376515E+000	-1.17630879E+002	
-7.27305185E+000	-1.17607444E+002	
-7.25233854E+000	-1.17636672E+002	
-7.23162524E+000	-1.17633145E+002	
-7.21091193E+000	-1.17623468E+002	
-7.19019862E+000	-1.17612643E+002	
-7.16948532E+000	-1.17656408E+002	
-7.14877201E+000	-1.17721003E+002	
-7.12805871E+000	-1.17766773E+002	
-7.10734540E+000	-1.17846201E+002	
-7.08663210E+000	-1.17890436E+002	
-7.06591879E+000	-1.17861653E+002	
-7.04520549E+000	-1.17853178E+002	
-7.02449218E+000	-1.17835986E+002	
-7.00377888E+000	-1.17805306E+002	
-6.98306557E+000	-1.17833777E+002	
-6.96235227E+000	-1.17794776E+002	
-6.94163896E+000	-1.17829403E+002	
-6.92092566E+000	-1.17890019E+002	
-6.90021235E+000	-1.17901181E+002	
-6.87949904E+000	-1.17874621E+002	
-6.85878574E+000	-1.17852555E+002	
-6.83807243E+000	-1.17879851E+002	
-6.81735913E+000	-1.17896280E+002	
-6.79664582E+000	-1.17849863E+002	
-6.77593252E+000	-1.17883417E+002	
-6.75521921E+000	-1.17826159E+002	
-6.73450591E+000	-1.17823170E+002	
-6.71379260E+000	-1.17801365E+002	
-6.69307930E+000	-1.17796347E+002	
-6.67236599E+000	-1.17752356E+002	
-6.65165269E+000	-1.17737367E+002	
-6.63093938E+000	-1.17741089E+002	
-6.61022608E+000	-1.17756537E+002	
-6.58951277E+000	-1.17751692E+002	
-6.56879947E+000	-1.17741438E+002	
-6.54808616E+000	-1.17709317E+002	
-6.52737285E+000	-1.17690718E+002	
-6.50665955E+000	-1.17721743E+002	
-6.48594624E+000	-1.17760036E+002	
-6.46523294E+000	-1.17794473E+002	
-6.44451963E+000	-1.17730808E+002	
-6.42380633E+000	-1.17684650E+002	
-6.40309302E+000	-1.17675352E+002	
-6.38237972E+000	-1.17653593E+002	
-6.36166641E+000	-1.17659361E+002	
-6.34095311E+000	-1.17662189E+002	
-6.32023980E+000	-1.17657621E+002	
-6.29952650E+000	-1.17677777E+002	
-6.27881319E+000	-1.17648647E+002	
-6.25809989E+000	-1.17669199E+002	
-6.23738658E+000	-1.17664458E+002	
-6.21667327E+000	-1.17653655E+002	
-6.19595997E+000	-1.17664985E+002	
-6.17524666E+000	-1.17655649E+002	
-6.15453336E+000	-1.17662559E+002	
-6.13382005E+000	-1.17654372E+002	
-6.11310675E+000	-1.17666112E+002	
-6.09239344E+000	-1.17660710E+002	
-6.07168014E+000	-1.17617678E+002	
-6.05096683E+000	-1.17692854E+002	
-6.03025353E+000	-1.17700452E+002	
-6.00954022E+000	-1.17673824E+002	
-5.98882692E+000	-1.17621331E+002	
-5.96811361E+000	-1.17626692E+002	
-5.94740031E+000	-1.17665714E+002	
-5.92668700E+000	-1.17715026E+002	
-5.90597369E+000	-1.17722100E+002	
-5.88526039E+000	-1.17770867E+002	
-5.86454708E+000	-1.17787803E+002	
-5.84383378E+000	-1.17749743E+002	
-5.82312047E+000	-1.17752777E+002	
-5.80240717E+000	-1.17710343E+002	
-5.78169386E+000	-1.17717997E+002	
-5.76098056E+000	-1.17717374E+002	
-5.74026725E+000	-1.17716607E+002	
-5.71955395E+000	-1.17744898E+002	
-5.69884064E+000	-1.17749991E+002	
-5.67812734E+000	-1.17779349E+002	
-5.65741403E+000	-1.17770807E+002	
-5.63670073E+000	-1.17778207E+002	
-5.61598742E+000	-1.17749540E+002	
-5.59527412E+000	-1.17702243E+002	
-5.57456081E+000	-1.17763403E+002	
-5.55384750E+000	-1.17693467E+002	
-5.53313420E+000	-1.17629542E+002	
-5.51242089E+000	-1.17646650E+002	
-5.49170759E+000	-1.17652395E+002	
-5.47099428E+000	-1.17631689E+002	
-5.45028098E+000	-1.17683433E+002	
-5.42956767E+000	-1.17727880E+002	
-5.40885437E+000	-1.17713819E+002	
-5.38814106E+000	-1.17707009E+002	
-5.36742776E+000	-1.17685358E+002	
-5.34671445E+000	-1.17721409E+002	
-5.32600115E+000	-1.17730682E+002	
-5.30528784E+000	-1.17753892E+002	
-5.28457454E+000	-1.17742664E+002	
-5.26386123E+000	-1.17725085E+002	
-5.24314792E+000	-1.17666435E+002	
-5.22243462E+000	-1.17647262E+002	
-5.20172131E+000	-1.17648334E+002	
-5.18100801E+000	-1.17615258E+002	
-5.16029470E+000	-1.17613210E+002	
-5.13958140E+000	-1.17566068E+002	
-5.11886809E+000	-1.17542614E+002	
-5.09815479E+000	-1.17560323E+002	
-5.07744148E+000	-1.17524139E+002	
-5.05672818E+000	-1.17593159E+002	
-5.03601487E+000	-1.17619107E+002	
-5.01530157E+000	-1.17657525E+002	
-4.99458826E+000	-1.17665096E+002	
-4.97387496E+000	-1.17613956E+002	
-4.95316165E+000	-1.17607588E+002	
-4.93244834E+000	-1.17563490E+002	
-4.91173504E+000	-1.17556035E+002	
-4.89102173E+000	-1.17544511E+002	
-4.87030843E+000	-1.17573073E+002	
-4.84959512E+000	-1.17555815E+002	
-4.82888182E+000	-1.17517786E+002	
-4.80816851E+000	-1.17506177E+002	
-4.78745521E+000	-1.17510718E+002	
-4.76674190E+000	-1.17536625E+002	
-4.74602860E+000	-1.17554693E+002	
-4.72531529E+000	-1.17608776E+002	
-4.70460199E+000	-1.17596409E+002	
-4.68388868E+000	-1.17628164E+002	
-4.66317538E+000	-1.17608166E+002	
-4.64246207E+000	-1.17654866E+002	
-4.62174877E+000	-1.17701153E+002	
-4.60103546E+000	-1.17727807E+002	
-4.58032215E+000	-1.17753085E+002	
-4.55960885E+000	-1.17718921E+002	
-4.53889554E+000	-1.17750199E+002	
-4.51818224E+000	-1.17679831E+002	
-4.49746893E+000	-1.17634455E+002	
-4.47675563E+000	-1.17678394E+002	
-4.45604232E+000	-1.17666962E+002	
-4.43532902E+000	-1.17667894E+002	
-4.41461571E+000	-1.17658990E+002	
-4.39390241E+000	-1.17664248E+002	
-4.37318910E+000	-1.17668640E+002	
-4.35247580E+000	-1.17650315E+002	
-4.33176249E+000	-1.17641177E+002	
-4.31104919E+000	-1.17638418E+002	
-4.29033588E+000	-1.17632432E+002	
-4.26962257E+000	-1.17626855E+002	
-4.24890927E+000	-1.17670100E+002	
-4.22819596E+000	-1.17672574E+002	
-4.20748266E+000	-1.17706786E+002	
-4.18676935E+000	-1.17678217E+002	
-4.16605605E+000	-1.17686952E+002	
-4.14534274E+000	-1.17692556E+002	
-4.12462944E+000	-1.17644835E+002	
-4.10391613E+000	-1.17638682E+002	
-4.08320283E+000	-1.17625095E+002	
-4.06248952E+000	-1.17613997E+002	
-4.04177622E+000	-1.17567761E+002	
-4.02106291E+000	-1.17598197E+002	
-4.00034961E+000	-1.17599754E+002	
-3.97963630E+000	-1.17562402E+002	
-3.95892299E+000	-1.17564874E+002	
-3.93820969E+000	-1.17534105E+002	
-3.91749638E+000	-1.17547293E+002	
-3.89678308E+000	-1.17518727E+002	
-3.87606977E+000	-1.17462759E+002	
-3.85535647E+000	-1.17471056E+002	
-3.83464316E+000	-1.17465879E+002	
-3.81392986E+000	-1.17464495E+002	
-3.79321655E+000	-1.17493406E+002	
-3.77250325E+000	-1.17442132E+002	
-3.75178994E+000	-1.17455484E+002	
-3.73107664E+000	-1.17457368E+002	
-3.71036333E+000	-1.17397099E+002	
-3.68965003E+000	-1.17407353E+002	
-3.66893672E+000	-1.17457930E+002	
-3.64822342E+000	-1.17429105E+002	
-3.62751011E+000	-1.17450942E+002	
-3.60679680E+000	-1.17456257E+002	
-3.58608350E+000	-1.17456747E+002	
-3.56537019E+000	-1.17478805E+002	
-3.54465689E+000	-1.17480629E+002	
-3.52394358E+000	-1.17504528E+002	
-3.50323028E+000	-1.17549357E+002	
-3.48251697E+000	-1.17584665E+002	
-3.46180367E+000	-1.17625527E+002	
-3.44109036E+000	-1.17644095E+002	
-3.42037706E+000	-1.17674059E+002	
-3.39966375E+000	-1.17722049E+002	
-3.37895045E+000	-1.17770569E+002	
-3.35823714E+000	-1.17764923E+002	
-3.33752384E+000	-1.17768609E+002	
-3.31681053E+000	-1.17767346E+002	
-3.29609722E+000	-1.17739481E+002	
-3.27538392E+000	-1.17762104E+002	
-3.25467061E+000	-1.17780514E+002	
-3.23395731E+000	-1.17778029E+002	
-3.21324400E+000	-1.17809726E+002	
-3.19253070E+000	-1.17813294E+002	
-3.17181739E+000	-1.17774224E+002	
-3.15110409E+000	-1.17753365E+002	
-3.13039078E+000	-1.17746801E+002	
-3.10967748E+000	-1.17784813E+002	
-3.08896417E+000	-1.17765918E+002	
-3.06825087E+000	-1.17755964E+002	
-3.04753756E+000	-1.17792417E+002	
-3.02682426E+000	-1.17769517E+002	
-3.00611095E+000	-1.17698615E+002	
-2.98539764E+000	-1.17744400E+002	
-2.96468434E+000	-1.17703853E+002	
-2.94397103E+000	-1.17685804E+002	
-2.92325773E+000	-1.17645426E+002	
-2.90254442E+000	-1.17629990E+002	
-2.88183112E+000	-1.17643833E+002	
-2.86111781E+000	-1.17682752E+002	
-2.84040451E+000	-1.17720859E+002	
-2.81969120E+000	-1.17754910E+002	
-2.79897790E+000	-1.17822916E+002	
-2.77826459E+000	-1.17796655E+002	
-2.75755129E+000	-1.17766299E+002	
-2.73683798E+000	-1.17777590E+002	
-2.71612468E+000	-1.17725116E+002	
-2.69541137E+000	-1.17715430E+002	
-2.67469807E+000	-1.17785080E+002	
-2.65398476E+000	-1.17815558E+002	
-2.63327145E+000	-1.17814148E+002	
-2.61255815E+000	-1.17760595E+002	
-2.59184484E+000	-1.17765136E+002	
-2.57113154E+000	-1.17760632E+002	
-2.55041823E+000	-1.17744537E+002	
-2.52970493E+000	-1.17800618E+002	
-2.50899162E+000	-1.17867740E+002	
-2.48827832E+000	-1.17855008E+002	
-2.46756501E+000	-1.17865211E+002	
-2.44685171E+000	-1.17860628E+002	
-2.42613840E+000	-1.17889062E+002	
-2.40542510E+000	-1.17913290E+002	
-2.38471179E+000	-1.17901858E+002	
-2.36399849E+000	-1.17887158E+002	
-2.34328518E+000	-1.17836829E+002	
-2.32257187E+000	-1.17795083E+002	
-2.30185857E+000	-1.17730831E+002	
-2.28114526E+000	-1.17733499E+002	
-2.26043196E+000	-1.17800449E+002	
-2.23971865E+000	-1.17776485E+002	
-2.21900535E+000	-1.17830322E+002	
-2.19829204E+000	-1.17858716E+002	
-2.17757874E+000	-1.17818933E+002	
-2.15686543E+000	-1.17797601E+002	
-2.13615213E+000	-1.17837935E+002	
-2.11543882E+000	-1.17842064E+002	
-2.09472552E+000	-1.17864486E+002	
-2.07401221E+000	-1.17841832E+002	
-2.05329891E+000	-1.17800896E+002	
-2.03258560E+000	-1.17814803E+002	
-2.01187229E+000	-1.17815175E+002	
-1.99115899E+000	-1.17809207E+002	
-1.97044568E+000	-1.17748182E+002	
-1.94973238E+000	-1.17763512E+002	
-1.92901907E+000	-1.17742324E+002	
-1.90830577E+000	-1.17692086E+002	
-1.88759246E+000	-1.17682236E+002	
-1.86687916E+000	-1.17701912E+002	
-1.84616585E+000	-1.17673527E+002	
-1.82545255E+000	-1.17750334E+002	
-1.80473924E+000	-1.17750476E+002	
-1.78402594E+000	-1.17782896E+002	
-1.76331263E+000	-1.17791628E+002	
-1.74259933E+000	-1.17759462E+002	
-1.72188602E+000	-1.17748331E+002	
-1.70117272E+000	-1.17804493E+002	
-1.68045941E+000	-1.17818370E+002	
-1.65974610E+000	-1.17774939E+002	
-1.63903280E+000	-1.17746515E+002	
-1.61831949E+000	-1.17794325E+002	
-1.59760619E+000	-1.17799258E+002	
-1.57689288E+000	-1.17810156E+002	
-1.55617958E+000	-1.17871254E+002	
-1.53546627E+000	-1.17859549E+002	
-1.51475297E+000	-1.17852234E+002	
-1.49403966E+000	-1.17817582E+002	
-1.47332636E+000	-1.17849092E+002	
-1.45261305E+000	-1.17815066E+002	
-1.43189975E+000	-1.17812545E+002	
-1.41118644E+000	-1.17796521E+002	
-1.39047314E+000	-1.17807914E+002	
-1.36975983E+000	-1.17778534E+002	
-1.34904652E+000	-1.17779633E+002	
-1.32833322E+000	-1.17731169E+002	
-1.30761991E+000	-1.17695085E+002	
-1.28690661E+000	-1.17699985E+002	
-1.26619330E+000	-1.17686304E+002	
-1.24548000E+000	-1.17724382E+002	
-1.22476669E+000	-1.17765117E+002	
-1.20405339E+000	-1.17667991E+002	
-1.18334008E+000	-1.17666105E+002	
-1.16262678E+000	-1.17731936E+002	
-1.14191347E+000	-1.17747533E+002	
-1.12120017E+000	-1.17740938E+002	
-1.10048686E+000	-1.17714765E+002	
-1.07977356E+000	-1.17719509E+002	
-1.05906025E+000	-1.17747109E+002	
-1.03834694E+000	-1.17722804E+002	
-1.01763364E+000	-1.17676360E+002	
-9.96920334E-001	-1.17637264E+002	
-9.76207029E-001	-1.17622532E+002	
-9.55493724E-001	-1.17635134E+002	
-9.34780418E-001	-1.17654360E+002	
-9.14067113E-001	-1.17718631E+002	
-8.93353808E-001	-1.17717926E+002	
-8.72640502E-001	-1.17699028E+002	
-8.51927197E-001	-1.17738727E+002	
-8.31213892E-001	-1.17768992E+002	
-8.10500586E-001	-1.17815799E+002	
-7.89787281E-001	-1.17827802E+002	
-7.69073976E-001	-1.17839416E+002	
-7.48360671E-001	-1.17818892E+002	
-7.27647365E-001	-1.17811351E+002	
-7.06934060E-001	-1.17851928E+002	
-6.86220755E-001	-1.17875023E+002	
-6.65507449E-001	-1.17905800E+002	
-6.44794144E-001	-1.17907957E+002	
-6.24080839E-001	-1.17878675E+002	
-6.03367533E-001	-1.17871952E+002	
-5.82654228E-001	-1.17849566E+002	
-5.61940923E-001	-1.17791703E+002	
-5.41227617E-001	-1.17752245E+002	
-5.20514312E-001	-1.17762878E+002	
-4.99801007E-001	-1.17825522E+002	
-4.79087701E-001	-1.17888444E+002	
-4.58374396E-001	-1.17911413E+002	
-4.37661091E-001	-1.17876785E+002	
-4.16947785E-001	-1.17827800E+002	
-3.96234480E-001	-1.17818040E+002	
-3.75521175E-001	-1.17835535E+002	
-3.54807869E-001	-1.17836698E+002	
-3.34094564E-001	-1.17842771E+002	
-3.13381259E-001	-1.17870063E+002	
-2.92667954E-001	-1.17871068E+002	
-2.71954648E-001	-1.17836808E+002	
-2.51241343E-001	-1.05651588E+002	
-2.30528038E-001	-1.05283832E+002	
-2.09814732E-001	-1.05282358E+002	
-1.89101427E-001	-1.05277062E+002	
-1.68388122E-001	-1.05270080E+002	
-1.47674816E-001	-1.05267449E+002	
-1.26961511E-001	-1.05266423E+002	
-1.06248206E-001	-1.05260230E+002	
-8.55349003E-002	-1.05258375E+002	
-6.48215950E-002	-1.05257395E+002	
-4.41082897E-002	-1.05258909E+002	
-2.33949844E-002	-1.05257287E+002	
-2.68167905E-003	-1.05256739E+002	
1.80316263E-002	-1.05250869E+002	
3.87449316E-002	-1.05247682E+002	
5.94582369E-002	-1.05248242E+002	
8.01715422E-002	-1.05250053E+002	
1.00884848E-001	-1.05249674E+002	
1.21598153E-001	-1.05244588E+002	
1.42311458E-001	-1.05242171E+002	
1.63024763E-001	-1.05241322E+002	
1.83738069E-001	-1.05238073E+002	
2.04451374E-001	-1.05233460E+002	
2.25164679E-001	-1.05234252E+002	
2.45877985E-001	-1.10691823E+002	
2.66591290E-001	-1.17028045E+002	
2.87304595E-001	-1.17036052E+002	
3.08017901E-001	-1.17091585E+002	
3.28731206E-001	-1.17140403E+002	
3.49444511E-001	-1.17147180E+002	
3.70157817E-001	-1.17184385E+002	
3.90871122E-001	-1.17260659E+002	
4.11584427E-001	-1.17236079E+002	
4.32297733E-001	-1.17219968E+002	
4.53011038E-001	-1.17211359E+002	
4.73724343E-001	-1.17230932E+002	
4.94437649E-001	-1.17220183E+002	
5.15150954E-001	-1.17261856E+002	
5.35864259E-001	-1.17274721E+002	
5.56577565E-001	-1.17313031E+002	
5.77290870E-001	-1.17264576E+002	
5.98004175E-001	-1.17235566E+002	
6.18717481E-001	-1.17279722E+002	
6.39430786E-001	-1.17288686E+002	
6.60144091E-001	-1.17266255E+002	
6.80857396E-001	-1.17296067E+002	
7.01570702E-001	-1.17318380E+002	
7.22284007E-001	-1.17323427E+002	
7.42997312E-001	-1.17297847E+002	
7.63710618E-001	-1.17295682E+002	
7.84423923E-001	-1.17265125E+002	
8.05137228E-001	-1.17242055E+002	
8.25850534E-001	-1.17226127E+002	
8.46563839E-001	-1.17201404E+002	
8.67277144E-001	-1.17178014E+002	
8.87990450E-001	-1.17162306E+002	
9.08703755E-001	-1.17254692E+002	
9.29417060E-001	-1.17310865E+002	
9.50130366E-001	-1.17337351E+002	
9.70843671E-001	-1.17293829E+002	
9.91556976E-001	-1.17286929E+002	
1.01227028E+000	-1.17313894E+002	
1.03298359E+000	-1.17311358E+002	
1.05369689E+000	-1.17280412E+002	
1.07441020E+000	-1.17296473E+002	
1.09512350E+000	-1.17309627E+002	
1.11583681E+000	-1.17365045E+002	
1.13655011E+000	-1.17371361E+002	
1.15726342E+000	-1.17375732E+002	
1.17797672E+000	-1.17344926E+002	
1.19869003E+000	-1.17393733E+002	
1.21940333E+000	-1.17373990E+002	
1.24011664E+000	-1.17382619E+002	
1.26082995E+000	-1.17377006E+002	
1.28154325E+000	-1.17384188E+002	
1.30225656E+000	-1.17391302E+002	
1.32296986E+000	-1.17386481E+002	
1.34368317E+000	-1.17412894E+002	
1.36439647E+000	-1.17480155E+002	
1.38510978E+000	-1.17487724E+002	
1.40582308E+000	-1.17420463E+002	
1.42653639E+000	-1.17417225E+002	
1.44724969E+000	-1.17405125E+002	
1.46796300E+000	-1.17412471E+002	
1.48867630E+000	-1.17434733E+002	
1.50938961E+000	-1.17418637E+002	
1.53010291E+000	-1.17412798E+002	
1.55081622E+000	-1.17400234E+002	
1.57152953E+000	-1.17398594E+002	
