Acquired on 5/10/2021 at 10:51:40
Calibrated on 5/10/2021 at 10:35:08
Device Descriptor:  [none]
Scan Range (nm):  1539.624  --  1560.517
Measurement Type:  Reflection
Group Index:  1.500
Gain:  24 dB
Domain:  Time
Spatial Resolution (mm):  50.000000
Frequency domain window was applied to measurement data.
Number of Data Points (in this file):  16384
NOTE: Data stored in this file is decimated by a factor of 64.

Time (ns)	Amplitude (dB)	
-1.00072081E+001	-1.20303623E+002	
-9.98649484E+000	-1.19982840E+002	
-9.96578154E+000	-1.19654621E+002	
-9.94506823E+000	-1.19399589E+002	
-9.92435493E+000	-1.19173532E+002	
-9.90364162E+000	-1.18944927E+002	
-9.88292832E+000	-1.18731430E+002	
-9.86221501E+000	-1.18504717E+002	
-9.84150171E+000	-1.18314407E+002	
-9.82078840E+000	-1.18137083E+002	
-9.80007509E+000	-1.17931966E+002	
-9.77936179E+000	-1.17746520E+002	
-9.75864848E+000	-1.17689278E+002	
-9.73793518E+000	-1.17723385E+002	
-9.71722187E+000	-1.17724802E+002	
-9.69650857E+000	-1.17735431E+002	
-9.67579526E+000	-1.17805632E+002	
-9.65508196E+000	-1.17784848E+002	
-9.63436865E+000	-1.17734552E+002	
-9.61365535E+000	-1.17727492E+002	
-9.59294204E+000	-1.17743255E+002	
-9.57222874E+000	-1.17781789E+002	
-9.55151543E+000	-1.17807685E+002	
-9.53080213E+000	-1.17783803E+002	
-9.51008882E+000	-1.17810826E+002	
-9.48937552E+000	-1.17825758E+002	
-9.46866221E+000	-1.17817184E+002	
-9.44794890E+000	-1.17793969E+002	
-9.42723560E+000	-1.17743526E+002	
-9.40652229E+000	-1.17722161E+002	
-9.38580899E+000	-1.17687068E+002	
-9.36509568E+000	-1.17685672E+002	
-9.34438238E+000	-1.17636052E+002	
-9.32366907E+000	-1.17607352E+002	
-9.30295577E+000	-1.17615763E+002	
-9.28224246E+000	-1.17620009E+002	
-9.26152916E+000	-1.17574003E+002	
-9.24081585E+000	-1.17502962E+002	
-9.22010255E+000	-1.17479849E+002	
-9.19938924E+000	-1.17512346E+002	
-9.17867594E+000	-1.17483554E+002	
-9.15796263E+000	-1.17477193E+002	
-9.13724932E+000	-1.17535733E+002	
-9.11653602E+000	-1.17551303E+002	
-9.09582271E+000	-1.17530320E+002	
-9.07510941E+000	-1.17519020E+002	
-9.05439610E+000	-1.17508013E+002	
-9.03368280E+000	-1.17389910E+002	
-9.01296949E+000	-1.17380855E+002	
-8.99225619E+000	-1.17380973E+002	
-8.97154288E+000	-1.17420969E+002	
-8.95082958E+000	-1.17429599E+002	
-8.93011627E+000	-1.17455700E+002	
-8.90940297E+000	-1.17481867E+002	
-8.88868966E+000	-1.17509221E+002	
-8.86797636E+000	-1.17503888E+002	
-8.84726305E+000	-1.17515475E+002	
-8.82654974E+000	-1.17497026E+002	
-8.80583644E+000	-1.17511700E+002	
-8.78512313E+000	-1.17501633E+002	
-8.76440983E+000	-1.17504337E+002	
-8.74369652E+000	-1.17571517E+002	
-8.72298322E+000	-1.17592068E+002	
-8.70226991E+000	-1.17524235E+002	
-8.68155661E+000	-1.17503877E+002	
-8.66084330E+000	-1.17531028E+002	
-8.64013000E+000	-1.17488293E+002	
-8.61941669E+000	-1.17439509E+002	
-8.59870339E+000	-1.17459764E+002	
-8.57799008E+000	-1.17457819E+002	
-8.55727678E+000	-1.17433272E+002	
-8.53656347E+000	-1.17555937E+002	
-8.51585017E+000	-1.17561101E+002	
-8.49513686E+000	-1.17560251E+002	
-8.47442355E+000	-1.17551324E+002	
-8.45371025E+000	-1.17566024E+002	
-8.43299694E+000	-1.17589481E+002	
-8.41228364E+000	-1.17563229E+002	
-8.39157033E+000	-1.17550837E+002	
-8.37085703E+000	-1.17586847E+002	
-8.35014372E+000	-1.17600988E+002	
-8.32943042E+000	-1.17628760E+002	
-8.30871711E+000	-1.17573308E+002	
-8.28800381E+000	-1.17612906E+002	
-8.26729050E+000	-1.17608979E+002	
-8.24657720E+000	-1.17599672E+002	
-8.22586389E+000	-1.17572004E+002	
-8.20515059E+000	-1.17621149E+002	
-8.18443728E+000	-1.17620544E+002	
-8.16372397E+000	-1.17611296E+002	
-8.14301067E+000	-1.17576544E+002	
-8.12229736E+000	-1.17591169E+002	
-8.10158406E+000	-1.17598933E+002	
-8.08087075E+000	-1.17602730E+002	
-8.06015745E+000	-1.17580304E+002	
-8.03944414E+000	-1.17528669E+002	
-8.01873084E+000	-1.17544706E+002	
-7.99801753E+000	-1.17542781E+002	
-7.97730423E+000	-1.17539397E+002	
-7.95659092E+000	-1.17513241E+002	
-7.93587762E+000	-1.17533446E+002	
-7.91516431E+000	-1.17566274E+002	
-7.89445101E+000	-1.17553117E+002	
-7.87373770E+000	-1.17527779E+002	
-7.85302439E+000	-1.17525458E+002	
-7.83231109E+000	-1.17506284E+002	
-7.81159778E+000	-1.17558581E+002	
-7.79088448E+000	-1.17575543E+002	
-7.77017117E+000	-1.17592866E+002	
-7.74945787E+000	-1.17602998E+002	
-7.72874456E+000	-1.17631076E+002	
-7.70803126E+000	-1.17598620E+002	
-7.68731795E+000	-1.17633402E+002	
-7.66660465E+000	-1.17617798E+002	
-7.64589134E+000	-1.17623789E+002	
-7.62517804E+000	-1.17628380E+002	
-7.60446473E+000	-1.17548319E+002	
-7.58375143E+000	-1.17564085E+002	
-7.56303812E+000	-1.17600206E+002	
-7.54232482E+000	-1.17663118E+002	
-7.52161151E+000	-1.17652595E+002	
-7.50089820E+000	-1.17664934E+002	
-7.48018490E+000	-1.17644369E+002	
-7.45947159E+000	-1.17693417E+002	
-7.43875829E+000	-1.17624041E+002	
-7.41804498E+000	-1.17546467E+002	
-7.39733168E+000	-1.17586958E+002	
-7.37661837E+000	-1.17595500E+002	
-7.35590507E+000	-1.17606237E+002	
-7.33519176E+000	-1.17628978E+002	
-7.31447846E+000	-1.17651032E+002	
-7.29376515E+000	-1.17639967E+002	
-7.27305185E+000	-1.17616836E+002	
-7.25233854E+000	-1.17645682E+002	
-7.23162524E+000	-1.17642634E+002	
-7.21091193E+000	-1.17630927E+002	
-7.19019862E+000	-1.17623697E+002	
-7.16948532E+000	-1.17673964E+002	
-7.14877201E+000	-1.17742838E+002	
-7.12805871E+000	-1.17781127E+002	
-7.10734540E+000	-1.17859404E+002	
-7.08663210E+000	-1.17897744E+002	
-7.06591879E+000	-1.17876086E+002	
-7.04520549E+000	-1.17873833E+002	
-7.02449218E+000	-1.17858559E+002	
-7.00377888E+000	-1.17833499E+002	
-6.98306557E+000	-1.17865839E+002	
-6.96235227E+000	-1.17830724E+002	
-6.94163896E+000	-1.17870692E+002	
-6.92092566E+000	-1.17932768E+002	
-6.90021235E+000	-1.17939200E+002	
-6.87949904E+000	-1.17914886E+002	
-6.85878574E+000	-1.17892825E+002	
-6.83807243E+000	-1.17917234E+002	
-6.81735913E+000	-1.17931934E+002	
-6.79664582E+000	-1.17879068E+002	
-6.77593252E+000	-1.17908668E+002	
-6.75521921E+000	-1.17861722E+002	
-6.73450591E+000	-1.17859473E+002	
-6.71379260E+000	-1.17836202E+002	
-6.69307930E+000	-1.17828249E+002	
-6.67236599E+000	-1.17782585E+002	
-6.65165269E+000	-1.17763991E+002	
-6.63093938E+000	-1.17768371E+002	
-6.61022608E+000	-1.17782451E+002	
-6.58951277E+000	-1.17776122E+002	
-6.56879947E+000	-1.17760008E+002	
-6.54808616E+000	-1.17728870E+002	
-6.52737285E+000	-1.17713293E+002	
-6.50665955E+000	-1.17747148E+002	
-6.48594624E+000	-1.17785171E+002	
-6.46523294E+000	-1.17813217E+002	
-6.44451963E+000	-1.17737844E+002	
-6.42380633E+000	-1.17692191E+002	
-6.40309302E+000	-1.17671839E+002	
-6.38237972E+000	-1.17643920E+002	
-6.36166641E+000	-1.17652129E+002	
-6.34095311E+000	-1.17657648E+002	
-6.32023980E+000	-1.17646858E+002	
-6.29952650E+000	-1.17664743E+002	
-6.27881319E+000	-1.17631358E+002	
-6.25809989E+000	-1.17647740E+002	
-6.23738658E+000	-1.17640493E+002	
-6.21667327E+000	-1.17627252E+002	
-6.19595997E+000	-1.17640426E+002	
-6.17524666E+000	-1.17625315E+002	
-6.15453336E+000	-1.17626234E+002	
-6.13382005E+000	-1.17614636E+002	
-6.11310675E+000	-1.17621806E+002	
-6.09239344E+000	-1.17614849E+002	
-6.07168014E+000	-1.17572614E+002	
-6.05096683E+000	-1.17643441E+002	
-6.03025353E+000	-1.17643486E+002	
-6.00954022E+000	-1.17610029E+002	
-5.98882692E+000	-1.17555670E+002	
-5.96811361E+000	-1.17566233E+002	
-5.94740031E+000	-1.17613903E+002	
-5.92668700E+000	-1.17658342E+002	
-5.90597369E+000	-1.17677550E+002	
-5.88526039E+000	-1.17722679E+002	
-5.86454708E+000	-1.17744519E+002	
-5.84383378E+000	-1.17710378E+002	
-5.82312047E+000	-1.17716070E+002	
-5.80240717E+000	-1.17688643E+002	
-5.78169386E+000	-1.17706364E+002	
-5.76098056E+000	-1.17713968E+002	
-5.74026725E+000	-1.17715043E+002	
-5.71955395E+000	-1.17743147E+002	
-5.69884064E+000	-1.17745063E+002	
-5.67812734E+000	-1.17774705E+002	
-5.65741403E+000	-1.17769893E+002	
-5.63670073E+000	-1.17776107E+002	
-5.61598742E+000	-1.17751556E+002	
-5.59527412E+000	-1.17716521E+002	
-5.57456081E+000	-1.17776109E+002	
-5.55384750E+000	-1.17693340E+002	
-5.53313420E+000	-1.17619532E+002	
-5.51242089E+000	-1.17644612E+002	
-5.49170759E+000	-1.17652423E+002	
-5.47099428E+000	-1.17629807E+002	
-5.45028098E+000	-1.17677760E+002	
-5.42956767E+000	-1.17717209E+002	
-5.40885437E+000	-1.17698000E+002	
-5.38814106E+000	-1.17694346E+002	
-5.36742776E+000	-1.17669557E+002	
-5.34671445E+000	-1.17697106E+002	
-5.32600115E+000	-1.17703114E+002	
-5.30528784E+000	-1.17720525E+002	
-5.28457454E+000	-1.17702434E+002	
-5.26386123E+000	-1.17674291E+002	
-5.24314792E+000	-1.17618141E+002	
-5.22243462E+000	-1.17613483E+002	
-5.20172131E+000	-1.17611631E+002	
-5.18100801E+000	-1.17580714E+002	
-5.16029470E+000	-1.17578050E+002	
-5.13958140E+000	-1.17534507E+002	
-5.11886809E+000	-1.17509803E+002	
-5.09815479E+000	-1.17519955E+002	
-5.07744148E+000	-1.17486405E+002	
-5.05672818E+000	-1.17560869E+002	
-5.03601487E+000	-1.17599727E+002	
-5.01530157E+000	-1.17635018E+002	
-4.99458826E+000	-1.17637940E+002	
-4.97387496E+000	-1.17585262E+002	
-4.95316165E+000	-1.17584013E+002	
-4.93244834E+000	-1.17538071E+002	
-4.91173504E+000	-1.17528430E+002	
-4.89102173E+000	-1.17519654E+002	
-4.87030843E+000	-1.17541902E+002	
-4.84959512E+000	-1.17527764E+002	
-4.82888182E+000	-1.17488516E+002	
-4.80816851E+000	-1.17475966E+002	
-4.78745521E+000	-1.17489888E+002	
-4.76674190E+000	-1.17511546E+002	
-4.74602860E+000	-1.17523944E+002	
-4.72531529E+000	-1.17560813E+002	
-4.70460199E+000	-1.17554036E+002	
-4.68388868E+000	-1.17586714E+002	
-4.66317538E+000	-1.17571202E+002	
-4.64246207E+000	-1.17620768E+002	
-4.62174877E+000	-1.17670469E+002	
-4.60103546E+000	-1.17692226E+002	
-4.58032215E+000	-1.17718383E+002	
-4.55960885E+000	-1.17680440E+002	
-4.53889554E+000	-1.17711962E+002	
-4.51818224E+000	-1.17631307E+002	
-4.49746893E+000	-1.17592857E+002	
-4.47675563E+000	-1.17641332E+002	
-4.45604232E+000	-1.17625437E+002	
-4.43532902E+000	-1.17629672E+002	
-4.41461571E+000	-1.17629420E+002	
-4.39390241E+000	-1.17639452E+002	
-4.37318910E+000	-1.17650654E+002	
-4.35247580E+000	-1.17638409E+002	
-4.33176249E+000	-1.17635247E+002	
-4.31104919E+000	-1.17628228E+002	
-4.29033588E+000	-1.17618339E+002	
-4.26962257E+000	-1.17616470E+002	
-4.24890927E+000	-1.17665497E+002	
-4.22819596E+000	-1.17670225E+002	
-4.20748266E+000	-1.17706164E+002	
-4.18676935E+000	-1.17667785E+002	
-4.16605605E+000	-1.17680209E+002	
-4.14534274E+000	-1.17682994E+002	
-4.12462944E+000	-1.17637124E+002	
-4.10391613E+000	-1.17635213E+002	
-4.08320283E+000	-1.17623864E+002	
-4.06248952E+000	-1.17614429E+002	
-4.04177622E+000	-1.17572357E+002	
-4.02106291E+000	-1.17609439E+002	
-4.00034961E+000	-1.17611239E+002	
-3.97963630E+000	-1.17570279E+002	
-3.95892299E+000	-1.17575236E+002	
-3.93820969E+000	-1.17545903E+002	
-3.91749638E+000	-1.17556009E+002	
-3.89678308E+000	-1.17523577E+002	
-3.87606977E+000	-1.17460161E+002	
-3.85535647E+000	-1.17462974E+002	
-3.83464316E+000	-1.17449524E+002	
-3.81392986E+000	-1.17452172E+002	
-3.79321655E+000	-1.17484531E+002	
-3.77250325E+000	-1.17438340E+002	
-3.75178994E+000	-1.17447905E+002	
-3.73107664E+000	-1.17449426E+002	
-3.71036333E+000	-1.17389385E+002	
-3.68965003E+000	-1.17406327E+002	
-3.66893672E+000	-1.17452245E+002	
-3.64822342E+000	-1.17422459E+002	
-3.62751011E+000	-1.17439412E+002	
-3.60679680E+000	-1.17441626E+002	
-3.58608350E+000	-1.17441813E+002	
-3.56537019E+000	-1.17463619E+002	
-3.54465689E+000	-1.17464240E+002	
-3.52394358E+000	-1.17489272E+002	
-3.50323028E+000	-1.17532781E+002	
-3.48251697E+000	-1.17571157E+002	
-3.46180367E+000	-1.17608880E+002	
-3.44109036E+000	-1.17629909E+002	
-3.42037706E+000	-1.17659828E+002	
-3.39966375E+000	-1.17708041E+002	
-3.37895045E+000	-1.17760056E+002	
-3.35823714E+000	-1.17756964E+002	
-3.33752384E+000	-1.17761862E+002	
-3.31681053E+000	-1.17759924E+002	
-3.29609722E+000	-1.17733165E+002	
-3.27538392E+000	-1.17753049E+002	
-3.25467061E+000	-1.17771968E+002	
-3.23395731E+000	-1.17768875E+002	
-3.21324400E+000	-1.17798950E+002	
-3.19253070E+000	-1.17804128E+002	
-3.17181739E+000	-1.17771293E+002	
-3.15110409E+000	-1.17751810E+002	
-3.13039078E+000	-1.17749875E+002	
-3.10967748E+000	-1.17789200E+002	
-3.08896417E+000	-1.17764335E+002	
-3.06825087E+000	-1.17751575E+002	
-3.04753756E+000	-1.17787982E+002	
-3.02682426E+000	-1.17757735E+002	
-3.00611095E+000	-1.17686758E+002	
-2.98539764E+000	-1.17729868E+002	
-2.96468434E+000	-1.17689840E+002	
-2.94397103E+000	-1.17660591E+002	
-2.92325773E+000	-1.17617359E+002	
-2.90254442E+000	-1.17603654E+002	
-2.88183112E+000	-1.17618916E+002	
-2.86111781E+000	-1.17658069E+002	
-2.84040451E+000	-1.17696304E+002	
-2.81969120E+000	-1.17733358E+002	
-2.79897790E+000	-1.17800258E+002	
-2.77826459E+000	-1.17768478E+002	
-2.75755129E+000	-1.17741426E+002	
-2.73683798E+000	-1.17751356E+002	
-2.71612468E+000	-1.17705365E+002	
-2.69541137E+000	-1.17695350E+002	
-2.67469807E+000	-1.17762984E+002	
-2.65398476E+000	-1.17790393E+002	
-2.63327145E+000	-1.17782329E+002	
-2.61255815E+000	-1.17727753E+002	
-2.59184484E+000	-1.17735884E+002	
-2.57113154E+000	-1.17731928E+002	
-2.55041823E+000	-1.17721407E+002	
-2.52970493E+000	-1.17781383E+002	
-2.50899162E+000	-1.17851533E+002	
-2.48827832E+000	-1.17837779E+002	
-2.46756501E+000	-1.17847167E+002	
-2.44685171E+000	-1.17851549E+002	
-2.42613840E+000	-1.17884313E+002	
-2.40542510E+000	-1.17903929E+002	
-2.38471179E+000	-1.17892825E+002	
-2.36399849E+000	-1.17871055E+002	
-2.34328518E+000	-1.17821956E+002	
-2.32257187E+000	-1.17780386E+002	
-2.30185857E+000	-1.17713535E+002	
-2.28114526E+000	-1.17725230E+002	
-2.26043196E+000	-1.17790739E+002	
-2.23971865E+000	-1.17768810E+002	
-2.21900535E+000	-1.17819471E+002	
-2.19829204E+000	-1.17845025E+002	
-2.17757874E+000	-1.17805161E+002	
-2.15686543E+000	-1.17787237E+002	
-2.13615213E+000	-1.17830925E+002	
-2.11543882E+000	-1.17842222E+002	
-2.09472552E+000	-1.17868169E+002	
-2.07401221E+000	-1.17843134E+002	
-2.05329891E+000	-1.17804589E+002	
-2.03258560E+000	-1.17820113E+002	
-2.01187229E+000	-1.17818600E+002	
-1.99115899E+000	-1.17808437E+002	
-1.97044568E+000	-1.17746099E+002	
-1.94973238E+000	-1.17763668E+002	
-1.92901907E+000	-1.17747977E+002	
-1.90830577E+000	-1.17700067E+002	
-1.88759246E+000	-1.17691437E+002	
-1.86687916E+000	-1.17716290E+002	
-1.84616585E+000	-1.17683743E+002	
-1.82545255E+000	-1.17761099E+002	
-1.80473924E+000	-1.17759787E+002	
-1.78402594E+000	-1.17793382E+002	
-1.76331263E+000	-1.17793785E+002	
-1.74259933E+000	-1.17757809E+002	
-1.72188602E+000	-1.17750313E+002	
-1.70117272E+000	-1.17804015E+002	
-1.68045941E+000	-1.17816848E+002	
-1.65974610E+000	-1.17770640E+002	
-1.63903280E+000	-1.17738656E+002	
-1.61831949E+000	-1.17792884E+002	
-1.59760619E+000	-1.17796578E+002	
-1.57689288E+000	-1.17808201E+002	
-1.55617958E+000	-1.17866811E+002	
-1.53546627E+000	-1.17850580E+002	
-1.51475297E+000	-1.17841482E+002	
-1.49403966E+000	-1.17811703E+002	
-1.47332636E+000	-1.17839677E+002	
-1.45261305E+000	-1.17803615E+002	
-1.43189975E+000	-1.17795786E+002	
-1.41118644E+000	-1.17780101E+002	
-1.39047314E+000	-1.17793239E+002	
-1.36975983E+000	-1.17759040E+002	
-1.34904652E+000	-1.17767256E+002	
-1.32833322E+000	-1.17711309E+002	
-1.30761991E+000	-1.17675670E+002	
-1.28690661E+000	-1.17673842E+002	
-1.26619330E+000	-1.17663633E+002	
-1.24548000E+000	-1.17705219E+002	
-1.22476669E+000	-1.17745911E+002	
-1.20405339E+000	-1.17653570E+002	
-1.18334008E+000	-1.17648972E+002	
-1.16262678E+000	-1.17717550E+002	
-1.14191347E+000	-1.17740976E+002	
-1.12120017E+000	-1.17727129E+002	
-1.10048686E+000	-1.17692380E+002	
-1.07977356E+000	-1.17697936E+002	
-1.05906025E+000	-1.17718036E+002	
-1.03834694E+000	-1.17688049E+002	
-1.01763364E+000	-1.17645228E+002	
-9.96920334E-001	-1.17603447E+002	
-9.76207029E-001	-1.17593157E+002	
-9.55493724E-001	-1.17618870E+002	
-9.34780418E-001	-1.17639019E+002	
-9.14067113E-001	-1.17701655E+002	
-8.93353808E-001	-1.17695217E+002	
-8.72640502E-001	-1.17679576E+002	
-8.51927197E-001	-1.17725026E+002	
-8.31213892E-001	-1.17756478E+002	
-8.10500586E-001	-1.17805727E+002	
-7.89787281E-001	-1.17822903E+002	
-7.69073976E-001	-1.17833238E+002	
-7.48360671E-001	-1.17815339E+002	
-7.27647365E-001	-1.17803112E+002	
-7.06934060E-001	-1.17847786E+002	
-6.86220755E-001	-1.17879907E+002	
-6.65507449E-001	-1.17908370E+002	
-6.44794144E-001	-1.17904440E+002	
-6.24080839E-001	-1.17874850E+002	
-6.03367533E-001	-1.17867206E+002	
-5.82654228E-001	-1.17845309E+002	
-5.61940923E-001	-1.17793488E+002	
-5.41227617E-001	-1.17762830E+002	
-5.20514312E-001	-1.17774950E+002	
-4.99801007E-001	-1.17844869E+002	
-4.79087701E-001	-1.17904385E+002	
-4.58374396E-001	-1.17919817E+002	
-4.37661091E-001	-1.17886213E+002	
-4.16947785E-001	-1.17846834E+002	
-3.96234480E-001	-1.17839829E+002	
-3.75521175E-001	-1.17862062E+002	
-3.54807869E-001	-1.17854608E+002	
-3.34094564E-001	-1.17863605E+002	
-3.13381259E-001	-1.17890946E+002	
-2.92667954E-001	-1.17888215E+002	
-2.71954648E-001	-1.17853064E+002	
-2.51241343E-001	-1.04644479E+002	
-2.30528038E-001	-1.04439216E+002	
-2.09814732E-001	-1.04437527E+002	
-1.89101427E-001	-1.04432835E+002	
-1.68388122E-001	-1.04427099E+002	
-1.47674816E-001	-1.04424902E+002	
-1.26961511E-001	-1.04424216E+002	
-1.06248206E-001	-1.04419195E+002	
-8.55349003E-002	-1.04417604E+002	
-6.48215950E-002	-1.04416539E+002	
-4.41082897E-002	-1.04417721E+002	
-2.33949844E-002	-1.04416716E+002	
-2.68167905E-003	-1.04416255E+002	
1.80316263E-002	-1.04411383E+002	
3.87449316E-002	-1.04409151E+002	
5.94582369E-002	-1.04409622E+002	
8.01715422E-002	-1.04411048E+002	
1.00884848E-001	-1.04410022E+002	
1.21598153E-001	-1.04405413E+002	
1.42311458E-001	-1.04403690E+002	
1.63024763E-001	-1.04402859E+002	
1.83738069E-001	-1.04399954E+002	
2.04451374E-001	-1.04396210E+002	
2.25164679E-001	-1.04396823E+002	
2.45877985E-001	-1.10587285E+002	
2.66591290E-001	-1.17004895E+002	
2.87304595E-001	-1.17015149E+002	
3.08017901E-001	-1.17067402E+002	
3.28731206E-001	-1.17116149E+002	
3.49444511E-001	-1.17119805E+002	
3.70157817E-001	-1.17153351E+002	
3.90871122E-001	-1.17226203E+002	
4.11584427E-001	-1.17199698E+002	
4.32297733E-001	-1.17183537E+002	
4.53011038E-001	-1.17175467E+002	
4.73724343E-001	-1.17184111E+002	
4.94437649E-001	-1.17164678E+002	
5.15150954E-001	-1.17198960E+002	
5.35864259E-001	-1.17205549E+002	
5.56577565E-001	-1.17241167E+002	
5.77290870E-001	-1.17192576E+002	
5.98004175E-001	-1.17160739E+002	
6.18717481E-001	-1.17209679E+002	
6.39430786E-001	-1.17219450E+002	
6.60144091E-001	-1.17202393E+002	
6.80857396E-001	-1.17228980E+002	
7.01570702E-001	-1.17257726E+002	
7.22284007E-001	-1.17266230E+002	
7.42997312E-001	-1.17246684E+002	
7.63710618E-001	-1.17242779E+002	
7.84423923E-001	-1.17220202E+002	
8.05137228E-001	-1.17206999E+002	
8.25850534E-001	-1.17196882E+002	
8.46563839E-001	-1.17173131E+002	
8.67277144E-001	-1.17152982E+002	
8.87990450E-001	-1.17148238E+002	
9.08703755E-001	-1.17246533E+002	
9.29417060E-001	-1.17298850E+002	
9.50130366E-001	-1.17337692E+002	
9.70843671E-001	-1.17302870E+002	
9.91556976E-001	-1.17294939E+002	
1.01227028E+000	-1.17336160E+002	
1.03298359E+000	-1.17324518E+002	
1.05369689E+000	-1.17293190E+002	
1.07441020E+000	-1.17315740E+002	
1.09512350E+000	-1.17349497E+002	
1.11583681E+000	-1.17409880E+002	
1.13655011E+000	-1.17403549E+002	
1.15726342E+000	-1.17395327E+002	
1.17797672E+000	-1.17366804E+002	
1.19869003E+000	-1.17417112E+002	
1.21940333E+000	-1.17395379E+002	
1.24011664E+000	-1.17413345E+002	
1.26082995E+000	-1.17401937E+002	
1.28154325E+000	-1.17409453E+002	
1.30225656E+000	-1.17417155E+002	
1.32296986E+000	-1.17417685E+002	
1.34368317E+000	-1.17449296E+002	
1.36439647E+000	-1.17521361E+002	
1.38510978E+000	-1.17517399E+002	
1.40582308E+000	-1.17439298E+002	
1.42653639E+000	-1.17428217E+002	
1.44724969E+000	-1.17402024E+002	
1.46796300E+000	-1.17414206E+002	
1.48867630E+000	-1.17439388E+002	
1.50938961E+000	-1.17424639E+002	
1.53010291E+000	-1.17441877E+002	
1.55081622E+000	-1.17432021E+002	
1.57152953E+000	-1.17428555E+002	
