Acquired on 5/10/2021 at 16:01:42
Calibrated on 5/10/2021 at 10:35:08
Device Descriptor:  [none]
Scan Range (nm):  1539.624  --  1560.517
Measurement Type:  Reflection
Group Index:  1.500
Gain:  24 dB
Domain:  Time
Spatial Resolution (mm):  50.000000
Frequency domain window was applied to measurement data.
Number of Data Points (in this file):  16384
NOTE: Data stored in this file is decimated by a factor of 64.

Time (ns)	Amplitude (dB)	
-1.00072081E+001	-1.20314527E+002	
-9.98649484E+000	-1.19990303E+002	
-9.96578154E+000	-1.19665689E+002	
-9.94506823E+000	-1.19405805E+002	
-9.92435493E+000	-1.19175229E+002	
-9.90364162E+000	-1.18939443E+002	
-9.88292832E+000	-1.18721766E+002	
-9.86221501E+000	-1.18499590E+002	
-9.84150171E+000	-1.18308888E+002	
-9.82078840E+000	-1.18132931E+002	
-9.80007509E+000	-1.17924163E+002	
-9.77936179E+000	-1.17735955E+002	
-9.75864848E+000	-1.17672747E+002	
-9.73793518E+000	-1.17705054E+002	
-9.71722187E+000	-1.17704654E+002	
-9.69650857E+000	-1.17713590E+002	
-9.67579526E+000	-1.17780170E+002	
-9.65508196E+000	-1.17763657E+002	
-9.63436865E+000	-1.17708857E+002	
-9.61365535E+000	-1.17703222E+002	
-9.59294204E+000	-1.17714490E+002	
-9.57222874E+000	-1.17747964E+002	
-9.55151543E+000	-1.17767865E+002	
-9.53080213E+000	-1.17754152E+002	
-9.51008882E+000	-1.17785135E+002	
-9.48937552E+000	-1.17794994E+002	
-9.46866221E+000	-1.17782043E+002	
-9.44794890E+000	-1.17751323E+002	
-9.42723560E+000	-1.17706760E+002	
-9.40652229E+000	-1.17693148E+002	
-9.38580899E+000	-1.17662217E+002	
-9.36509568E+000	-1.17662266E+002	
-9.34438238E+000	-1.17617703E+002	
-9.32366907E+000	-1.17587468E+002	
-9.30295577E+000	-1.17590714E+002	
-9.28224246E+000	-1.17596876E+002	
-9.26152916E+000	-1.17555901E+002	
-9.24081585E+000	-1.17495923E+002	
-9.22010255E+000	-1.17470980E+002	
-9.19938924E+000	-1.17498380E+002	
-9.17867594E+000	-1.17473090E+002	
-9.15796263E+000	-1.17463280E+002	
-9.13724932E+000	-1.17526804E+002	
-9.11653602E+000	-1.17537062E+002	
-9.09582271E+000	-1.17510764E+002	
-9.07510941E+000	-1.17505100E+002	
-9.05439610E+000	-1.17499095E+002	
-9.03368280E+000	-1.17381411E+002	
-9.01296949E+000	-1.17375489E+002	
-8.99225619E+000	-1.17382615E+002	
-8.97154288E+000	-1.17424506E+002	
-8.95082958E+000	-1.17437975E+002	
-8.93011627E+000	-1.17461951E+002	
-8.90940297E+000	-1.17487943E+002	
-8.88868966E+000	-1.17513007E+002	
-8.86797636E+000	-1.17501411E+002	
-8.84726305E+000	-1.17502017E+002	
-8.82654974E+000	-1.17484588E+002	
-8.80583644E+000	-1.17507591E+002	
-8.78512313E+000	-1.17500437E+002	
-8.76440983E+000	-1.17502020E+002	
-8.74369652E+000	-1.17559920E+002	
-8.72298322E+000	-1.17582671E+002	
-8.70226991E+000	-1.17521205E+002	
-8.68155661E+000	-1.17498383E+002	
-8.66084330E+000	-1.17521591E+002	
-8.64013000E+000	-1.17474117E+002	
-8.61941669E+000	-1.17425841E+002	
-8.59870339E+000	-1.17448145E+002	
-8.57799008E+000	-1.17451182E+002	
-8.55727678E+000	-1.17418134E+002	
-8.53656347E+000	-1.17514263E+002	
-8.51585017E+000	-1.17506776E+002	
-8.49513686E+000	-1.17506564E+002	
-8.47442355E+000	-1.17500786E+002	
-8.45371025E+000	-1.17515934E+002	
-8.43299694E+000	-1.17541771E+002	
-8.41228364E+000	-1.17504075E+002	
-8.39157033E+000	-1.17491138E+002	
-8.37085703E+000	-1.17535926E+002	
-8.35014372E+000	-1.17555491E+002	
-8.32943042E+000	-1.17581233E+002	
-8.30871711E+000	-1.17532901E+002	
-8.28800381E+000	-1.17567586E+002	
-8.26729050E+000	-1.17557424E+002	
-8.24657720E+000	-1.17547715E+002	
-8.22586389E+000	-1.17521576E+002	
-8.20515059E+000	-1.17569507E+002	
-8.18443728E+000	-1.17570201E+002	
-8.16372397E+000	-1.17562333E+002	
-8.14301067E+000	-1.17529349E+002	
-8.12229736E+000	-1.17545603E+002	
-8.10158406E+000	-1.17553854E+002	
-8.08087075E+000	-1.17551112E+002	
-8.06015745E+000	-1.17527466E+002	
-8.03944414E+000	-1.17491605E+002	
-8.01873084E+000	-1.17522338E+002	
-7.99801753E+000	-1.17514546E+002	
-7.97730423E+000	-1.17501786E+002	
-7.95659092E+000	-1.17480839E+002	
-7.93587762E+000	-1.17500733E+002	
-7.91516431E+000	-1.17539241E+002	
-7.89445101E+000	-1.17533063E+002	
-7.87373770E+000	-1.17507439E+002	
-7.85302439E+000	-1.17493757E+002	
-7.83231109E+000	-1.17475017E+002	
-7.81159778E+000	-1.17517416E+002	
-7.79088448E+000	-1.17536056E+002	
-7.77017117E+000	-1.17561375E+002	
-7.74945787E+000	-1.17576533E+002	
-7.72874456E+000	-1.17598053E+002	
-7.70803126E+000	-1.17566508E+002	
-7.68731795E+000	-1.17597044E+002	
-7.66660465E+000	-1.17588790E+002	
-7.64589134E+000	-1.17600519E+002	
-7.62517804E+000	-1.17595991E+002	
-7.60446473E+000	-1.17516102E+002	
-7.58375143E+000	-1.17529541E+002	
-7.56303812E+000	-1.17568611E+002	
-7.54232482E+000	-1.17639847E+002	
-7.52161151E+000	-1.17627983E+002	
-7.50089820E+000	-1.17646852E+002	
-7.48018490E+000	-1.17635084E+002	
-7.45947159E+000	-1.17680833E+002	
-7.43875829E+000	-1.17609070E+002	
-7.41804498E+000	-1.17534830E+002	
-7.39733168E+000	-1.17573933E+002	
-7.37661837E+000	-1.17575974E+002	
-7.35590507E+000	-1.17594897E+002	
-7.33519176E+000	-1.17621106E+002	
-7.31447846E+000	-1.17645770E+002	
-7.29376515E+000	-1.17627974E+002	
-7.27305185E+000	-1.17608612E+002	
-7.25233854E+000	-1.17631569E+002	
-7.23162524E+000	-1.17630038E+002	
-7.21091193E+000	-1.17615203E+002	
-7.19019862E+000	-1.17607040E+002	
-7.16948532E+000	-1.17648723E+002	
-7.14877201E+000	-1.17705723E+002	
-7.12805871E+000	-1.17751746E+002	
-7.10734540E+000	-1.17838382E+002	
-7.08663210E+000	-1.17877293E+002	
-7.06591879E+000	-1.17851531E+002	
-7.04520549E+000	-1.17837867E+002	
-7.02449218E+000	-1.17810265E+002	
-7.00377888E+000	-1.17775556E+002	
-6.98306557E+000	-1.17797083E+002	
-6.96235227E+000	-1.17759947E+002	
-6.94163896E+000	-1.17801724E+002	
-6.92092566E+000	-1.17863380E+002	
-6.90021235E+000	-1.17865908E+002	
-6.87949904E+000	-1.17846441E+002	
-6.85878574E+000	-1.17830173E+002	
-6.83807243E+000	-1.17849427E+002	
-6.81735913E+000	-1.17854059E+002	
-6.79664582E+000	-1.17804519E+002	
-6.77593252E+000	-1.17826725E+002	
-6.75521921E+000	-1.17778800E+002	
-6.73450591E+000	-1.17777484E+002	
-6.71379260E+000	-1.17756937E+002	
-6.69307930E+000	-1.17757080E+002	
-6.67236599E+000	-1.17715364E+002	
-6.65165269E+000	-1.17700308E+002	
-6.63093938E+000	-1.17703826E+002	
-6.61022608E+000	-1.17712717E+002	
-6.58951277E+000	-1.17706286E+002	
-6.56879947E+000	-1.17687166E+002	
-6.54808616E+000	-1.17657398E+002	
-6.52737285E+000	-1.17650205E+002	
-6.50665955E+000	-1.17687273E+002	
-6.48594624E+000	-1.17731421E+002	
-6.46523294E+000	-1.17760852E+002	
-6.44451963E+000	-1.17683311E+002	
-6.42380633E+000	-1.17635361E+002	
-6.40309302E+000	-1.17622078E+002	
-6.38237972E+000	-1.17590356E+002	
-6.36166641E+000	-1.17589029E+002	
-6.34095311E+000	-1.17591363E+002	
-6.32023980E+000	-1.17590348E+002	
-6.29952650E+000	-1.17613304E+002	
-6.27881319E+000	-1.17586724E+002	
-6.25809989E+000	-1.17605873E+002	
-6.23738658E+000	-1.17607019E+002	
-6.21667327E+000	-1.17589890E+002	
-6.19595997E+000	-1.17596096E+002	
-6.17524666E+000	-1.17586379E+002	
-6.15453336E+000	-1.17590310E+002	
-6.13382005E+000	-1.17577870E+002	
-6.11310675E+000	-1.17585400E+002	
-6.09239344E+000	-1.17582460E+002	
-6.07168014E+000	-1.17547087E+002	
-6.05096683E+000	-1.17615127E+002	
-6.03025353E+000	-1.17618705E+002	
-6.00954022E+000	-1.17592364E+002	
-5.98882692E+000	-1.17543340E+002	
-5.96811361E+000	-1.17554908E+002	
-5.94740031E+000	-1.17598996E+002	
-5.92668700E+000	-1.17646369E+002	
-5.90597369E+000	-1.17660896E+002	
-5.88526039E+000	-1.17710298E+002	
-5.86454708E+000	-1.17733950E+002	
-5.84383378E+000	-1.17698368E+002	
-5.82312047E+000	-1.17704908E+002	
-5.80240717E+000	-1.17672262E+002	
-5.78169386E+000	-1.17684254E+002	
-5.76098056E+000	-1.17682596E+002	
-5.74026725E+000	-1.17675912E+002	
-5.71955395E+000	-1.17710643E+002	
-5.69884064E+000	-1.17719749E+002	
-5.67812734E+000	-1.17742565E+002	
-5.65741403E+000	-1.17741979E+002	
-5.63670073E+000	-1.17745666E+002	
-5.61598742E+000	-1.17723093E+002	
-5.59527412E+000	-1.17683936E+002	
-5.57456081E+000	-1.17741689E+002	
-5.55384750E+000	-1.17668392E+002	
-5.53313420E+000	-1.17601378E+002	
-5.51242089E+000	-1.17618265E+002	
-5.49170759E+000	-1.17626319E+002	
-5.47099428E+000	-1.17609476E+002	
-5.45028098E+000	-1.17666988E+002	
-5.42956767E+000	-1.17705346E+002	
-5.40885437E+000	-1.17688348E+002	
-5.38814106E+000	-1.17690711E+002	
-5.36742776E+000	-1.17663921E+002	
-5.34671445E+000	-1.17696359E+002	
-5.32600115E+000	-1.17698546E+002	
-5.30528784E+000	-1.17720929E+002	
-5.28457454E+000	-1.17711271E+002	
-5.26386123E+000	-1.17694279E+002	
-5.24314792E+000	-1.17637977E+002	
-5.22243462E+000	-1.17617192E+002	
-5.20172131E+000	-1.17609767E+002	
-5.18100801E+000	-1.17579341E+002	
-5.16029470E+000	-1.17571967E+002	
-5.13958140E+000	-1.17530334E+002	
-5.11886809E+000	-1.17510966E+002	
-5.09815479E+000	-1.17523245E+002	
-5.07744148E+000	-1.17491990E+002	
-5.05672818E+000	-1.17565347E+002	
-5.03601487E+000	-1.17597300E+002	
-5.01530157E+000	-1.17633118E+002	
-4.99458826E+000	-1.17636181E+002	
-4.97387496E+000	-1.17577210E+002	
-4.95316165E+000	-1.17574113E+002	
-4.93244834E+000	-1.17533937E+002	
-4.91173504E+000	-1.17523965E+002	
-4.89102173E+000	-1.17512422E+002	
-4.87030843E+000	-1.17531312E+002	
-4.84959512E+000	-1.17512931E+002	
-4.82888182E+000	-1.17475275E+002	
-4.80816851E+000	-1.17464777E+002	
-4.78745521E+000	-1.17466075E+002	
-4.76674190E+000	-1.17488504E+002	
-4.74602860E+000	-1.17511005E+002	
-4.72531529E+000	-1.17565839E+002	
-4.70460199E+000	-1.17562322E+002	
-4.68388868E+000	-1.17598806E+002	
-4.66317538E+000	-1.17583469E+002	
-4.64246207E+000	-1.17629849E+002	
-4.62174877E+000	-1.17668386E+002	
-4.60103546E+000	-1.17693997E+002	
-4.58032215E+000	-1.17716244E+002	
-4.55960885E+000	-1.17681903E+002	
-4.53889554E+000	-1.17714854E+002	
-4.51818224E+000	-1.17636310E+002	
-4.49746893E+000	-1.17592013E+002	
-4.47675563E+000	-1.17638267E+002	
-4.45604232E+000	-1.17621357E+002	
-4.43532902E+000	-1.17618295E+002	
-4.41461571E+000	-1.17612441E+002	
-4.39390241E+000	-1.17616294E+002	
-4.37318910E+000	-1.17623609E+002	
-4.35247580E+000	-1.17616626E+002	
-4.33176249E+000	-1.17614573E+002	
-4.31104919E+000	-1.17609632E+002	
-4.29033588E+000	-1.17606332E+002	
-4.26962257E+000	-1.17602605E+002	
-4.24890927E+000	-1.17643105E+002	
-4.22819596E+000	-1.17641515E+002	
-4.20748266E+000	-1.17677459E+002	
-4.18676935E+000	-1.17640925E+002	
-4.16605605E+000	-1.17651610E+002	
-4.14534274E+000	-1.17661468E+002	
-4.12462944E+000	-1.17623044E+002	
-4.10391613E+000	-1.17620943E+002	
-4.08320283E+000	-1.17610357E+002	
-4.06248952E+000	-1.17601176E+002	
-4.04177622E+000	-1.17557395E+002	
-4.02106291E+000	-1.17593256E+002	
-4.00034961E+000	-1.17596132E+002	
-3.97963630E+000	-1.17553027E+002	
-3.95892299E+000	-1.17556666E+002	
-3.93820969E+000	-1.17530134E+002	
-3.91749638E+000	-1.17543411E+002	
-3.89678308E+000	-1.17516484E+002	
-3.87606977E+000	-1.17462559E+002	
-3.85535647E+000	-1.17470164E+002	
-3.83464316E+000	-1.17456583E+002	
-3.81392986E+000	-1.17457728E+002	
-3.79321655E+000	-1.17485308E+002	
-3.77250325E+000	-1.17438725E+002	
-3.75178994E+000	-1.17452212E+002	
-3.73107664E+000	-1.17458069E+002	
-3.71036333E+000	-1.17395719E+002	
-3.68965003E+000	-1.17411665E+002	
-3.66893672E+000	-1.17459350E+002	
-3.64822342E+000	-1.17422071E+002	
-3.62751011E+000	-1.17436845E+002	
-3.60679680E+000	-1.17438312E+002	
-3.58608350E+000	-1.17439405E+002	
-3.56537019E+000	-1.17464124E+002	
-3.54465689E+000	-1.17466054E+002	
-3.52394358E+000	-1.17489605E+002	
-3.50323028E+000	-1.17531083E+002	
-3.48251697E+000	-1.17567969E+002	
-3.46180367E+000	-1.17603689E+002	
-3.44109036E+000	-1.17624999E+002	
-3.42037706E+000	-1.17653645E+002	
-3.39966375E+000	-1.17698434E+002	
-3.37895045E+000	-1.17737485E+002	
-3.35823714E+000	-1.17727486E+002	
-3.33752384E+000	-1.17737126E+002	
-3.31681053E+000	-1.17733451E+002	
-3.29609722E+000	-1.17711252E+002	
-3.27538392E+000	-1.17731575E+002	
-3.25467061E+000	-1.17739616E+002	
-3.23395731E+000	-1.17736050E+002	
-3.21324400E+000	-1.17759623E+002	
-3.19253070E+000	-1.17764746E+002	
-3.17181739E+000	-1.17734694E+002	
-3.15110409E+000	-1.17712718E+002	
-3.13039078E+000	-1.17708673E+002	
-3.10967748E+000	-1.17743603E+002	
-3.08896417E+000	-1.17724459E+002	
-3.06825087E+000	-1.17711487E+002	
-3.04753756E+000	-1.17743122E+002	
-3.02682426E+000	-1.17715930E+002	
-3.00611095E+000	-1.17654867E+002	
-2.98539764E+000	-1.17703596E+002	
-2.96468434E+000	-1.17668575E+002	
-2.94397103E+000	-1.17646975E+002	
-2.92325773E+000	-1.17607368E+002	
-2.90254442E+000	-1.17599413E+002	
-2.88183112E+000	-1.17620115E+002	
-2.86111781E+000	-1.17666992E+002	
-2.84040451E+000	-1.17703617E+002	
-2.81969120E+000	-1.17740043E+002	
-2.79897790E+000	-1.17809000E+002	
-2.77826459E+000	-1.17772304E+002	
-2.75755129E+000	-1.17748073E+002	
-2.73683798E+000	-1.17758143E+002	
-2.71612468E+000	-1.17712509E+002	
-2.69541137E+000	-1.17702327E+002	
-2.67469807E+000	-1.17762607E+002	
-2.65398476E+000	-1.17791829E+002	
-2.63327145E+000	-1.17784671E+002	
-2.61255815E+000	-1.17728166E+002	
-2.59184484E+000	-1.17735101E+002	
-2.57113154E+000	-1.17731464E+002	
-2.55041823E+000	-1.17720257E+002	
-2.52970493E+000	-1.17779724E+002	
-2.50899162E+000	-1.17846390E+002	
-2.48827832E+000	-1.17828808E+002	
-2.46756501E+000	-1.17833473E+002	
-2.44685171E+000	-1.17832283E+002	
-2.42613840E+000	-1.17862027E+002	
-2.40542510E+000	-1.17880501E+002	
-2.38471179E+000	-1.17870981E+002	
-2.36399849E+000	-1.17852135E+002	
-2.34328518E+000	-1.17793857E+002	
-2.32257187E+000	-1.17756580E+002	
-2.30185857E+000	-1.17685154E+002	
-2.28114526E+000	-1.17694560E+002	
-2.26043196E+000	-1.17762155E+002	
-2.23971865E+000	-1.17738814E+002	
-2.21900535E+000	-1.17791742E+002	
-2.19829204E+000	-1.17810393E+002	
-2.17757874E+000	-1.17772929E+002	
-2.15686543E+000	-1.17753854E+002	
-2.13615213E+000	-1.17803585E+002	
-2.11543882E+000	-1.17824054E+002	
-2.09472552E+000	-1.17844163E+002	
-2.07401221E+000	-1.17820122E+002	
-2.05329891E+000	-1.17780111E+002	
-2.03258560E+000	-1.17796948E+002	
-2.01187229E+000	-1.17798834E+002	
-1.99115899E+000	-1.17795871E+002	
-1.97044568E+000	-1.17738125E+002	
-1.94973238E+000	-1.17755990E+002	
-1.92901907E+000	-1.17731798E+002	
-1.90830577E+000	-1.17684354E+002	
-1.88759246E+000	-1.17668224E+002	
-1.86687916E+000	-1.17689473E+002	
-1.84616585E+000	-1.17663754E+002	
-1.82545255E+000	-1.17734930E+002	
-1.80473924E+000	-1.17731890E+002	
-1.78402594E+000	-1.17761544E+002	
-1.76331263E+000	-1.17763293E+002	
-1.74259933E+000	-1.17731015E+002	
-1.72188602E+000	-1.17724568E+002	
-1.70117272E+000	-1.17790406E+002	
-1.68045941E+000	-1.17809989E+002	
-1.65974610E+000	-1.17772975E+002	
-1.63903280E+000	-1.17743688E+002	
-1.61831949E+000	-1.17789303E+002	
-1.59760619E+000	-1.17796056E+002	
-1.57689288E+000	-1.17809493E+002	
-1.55617958E+000	-1.17868279E+002	
-1.53546627E+000	-1.17847446E+002	
-1.51475297E+000	-1.17836856E+002	
-1.49403966E+000	-1.17801766E+002	
-1.47332636E+000	-1.17832296E+002	
-1.45261305E+000	-1.17789857E+002	
-1.43189975E+000	-1.17790438E+002	
-1.41118644E+000	-1.17771353E+002	
-1.39047314E+000	-1.17791467E+002	
-1.36975983E+000	-1.17760001E+002	
-1.34904652E+000	-1.17767466E+002	
-1.32833322E+000	-1.17713601E+002	
-1.30761991E+000	-1.17682192E+002	
-1.28690661E+000	-1.17686740E+002	
-1.26619330E+000	-1.17673870E+002	
-1.24548000E+000	-1.17708325E+002	
-1.22476669E+000	-1.17750500E+002	
-1.20405339E+000	-1.17655849E+002	
-1.18334008E+000	-1.17654139E+002	
-1.16262678E+000	-1.17722430E+002	
-1.14191347E+000	-1.17738968E+002	
-1.12120017E+000	-1.17723810E+002	
-1.10048686E+000	-1.17692832E+002	
-1.07977356E+000	-1.17695943E+002	
-1.05906025E+000	-1.17720043E+002	
-1.03834694E+000	-1.17695344E+002	
-1.01763364E+000	-1.17649033E+002	
-9.96920334E-001	-1.17601086E+002	
-9.76207029E-001	-1.17587168E+002	
-9.55493724E-001	-1.17607645E+002	
-9.34780418E-001	-1.17631386E+002	
-9.14067113E-001	-1.17697102E+002	
-8.93353808E-001	-1.17691031E+002	
-8.72640502E-001	-1.17673228E+002	
-8.51927197E-001	-1.17709920E+002	
-8.31213892E-001	-1.17746313E+002	
-8.10500586E-001	-1.17799873E+002	
-7.89787281E-001	-1.17824936E+002	
-7.69073976E-001	-1.17841603E+002	
-7.48360671E-001	-1.17823475E+002	
-7.27647365E-001	-1.17804833E+002	
-7.06934060E-001	-1.17841215E+002	
-6.86220755E-001	-1.17858865E+002	
-6.65507449E-001	-1.17881654E+002	
-6.44794144E-001	-1.17880441E+002	
-6.24080839E-001	-1.17850169E+002	
-6.03367533E-001	-1.17840041E+002	
-5.82654228E-001	-1.17818635E+002	
-5.61940923E-001	-1.17763873E+002	
-5.41227617E-001	-1.17726245E+002	
-5.20514312E-001	-1.17733888E+002	
-4.99801007E-001	-1.17801822E+002	
-4.79087701E-001	-1.17859221E+002	
-4.58374396E-001	-1.17880730E+002	
-4.37661091E-001	-1.17840071E+002	
-4.16947785E-001	-1.17793301E+002	
-3.96234480E-001	-1.17780516E+002	
-3.75521175E-001	-1.17797339E+002	
-3.54807869E-001	-1.17792912E+002	
-3.34094564E-001	-1.17799493E+002	
-3.13381259E-001	-1.17822837E+002	
-2.92667954E-001	-1.17815854E+002	
-2.71954648E-001	-1.17773698E+002	
-2.51241343E-001	-1.06237873E+002	
-2.30528038E-001	-1.05999162E+002	
-2.09814732E-001	-1.05997451E+002	
-1.89101427E-001	-1.05991244E+002	
-1.68388122E-001	-1.05983440E+002	
-1.47674816E-001	-1.05980389E+002	
-1.26961511E-001	-1.05979373E+002	
-1.06248206E-001	-1.05972291E+002	
-8.55349003E-002	-1.05970456E+002	
-6.48215950E-002	-1.05969290E+002	
-4.41082897E-002	-1.05971247E+002	
-2.33949844E-002	-1.05969889E+002	
-2.68167905E-003	-1.05969151E+002	
1.80316263E-002	-1.05963102E+002	
3.87449316E-002	-1.05960020E+002	
5.94582369E-002	-1.05960733E+002	
8.01715422E-002	-1.05962831E+002	
1.00884848E-001	-1.05962105E+002	
1.21598153E-001	-1.05955780E+002	
1.42311458E-001	-1.05953366E+002	
1.63024763E-001	-1.05952124E+002	
1.83738069E-001	-1.05948045E+002	
2.04451374E-001	-1.05942646E+002	
2.25164679E-001	-1.05944109E+002	
2.45877985E-001	-1.11674265E+002	
2.66591290E-001	-1.17020183E+002	
2.87304595E-001	-1.17027577E+002	
3.08017901E-001	-1.17084904E+002	
3.28731206E-001	-1.17133692E+002	
3.49444511E-001	-1.17142495E+002	
3.70157817E-001	-1.17184272E+002	
3.90871122E-001	-1.17260011E+002	
4.11584427E-001	-1.17231019E+002	
4.32297733E-001	-1.17212477E+002	
4.53011038E-001	-1.17207948E+002	
4.73724343E-001	-1.17220191E+002	
4.94437649E-001	-1.17210901E+002	
5.15150954E-001	-1.17244117E+002	
5.35864259E-001	-1.17249435E+002	
5.56577565E-001	-1.17287144E+002	
5.77290870E-001	-1.17243740E+002	
5.98004175E-001	-1.17214431E+002	
6.18717481E-001	-1.17267138E+002	
6.39430786E-001	-1.17275583E+002	
6.60144091E-001	-1.17260184E+002	
6.80857396E-001	-1.17297832E+002	
7.01570702E-001	-1.17328907E+002	
7.22284007E-001	-1.17334622E+002	
7.42997312E-001	-1.17313713E+002	
7.63710618E-001	-1.17310681E+002	
7.84423923E-001	-1.17283459E+002	
8.05137228E-001	-1.17263035E+002	
8.25850534E-001	-1.17241282E+002	
8.46563839E-001	-1.17210867E+002	
8.67277144E-001	-1.17188120E+002	
8.87990450E-001	-1.17175621E+002	
9.08703755E-001	-1.17269911E+002	
9.29417060E-001	-1.17318923E+002	
9.50130366E-001	-1.17341133E+002	
9.70843671E-001	-1.17299771E+002	
9.91556976E-001	-1.17289756E+002	
1.01227028E+000	-1.17322397E+002	
1.03298359E+000	-1.17319420E+002	
1.05369689E+000	-1.17291811E+002	
1.07441020E+000	-1.17309032E+002	
1.09512350E+000	-1.17327015E+002	
1.11583681E+000	-1.17384949E+002	
1.13655011E+000	-1.17385920E+002	
1.15726342E+000	-1.17385612E+002	
1.17797672E+000	-1.17350493E+002	
1.19869003E+000	-1.17387478E+002	
1.21940333E+000	-1.17359358E+002	
1.24011664E+000	-1.17369520E+002	
1.26082995E+000	-1.17361131E+002	
1.28154325E+000	-1.17366801E+002	
1.30225656E+000	-1.17374019E+002	
1.32296986E+000	-1.17379235E+002	
1.34368317E+000	-1.17407328E+002	
1.36439647E+000	-1.17473648E+002	
1.38510978E+000	-1.17480260E+002	
1.40582308E+000	-1.17410309E+002	
1.42653639E+000	-1.17412984E+002	
1.44724969E+000	-1.17400845E+002	
1.46796300E+000	-1.17412052E+002	
1.48867630E+000	-1.17440575E+002	
1.50938961E+000	-1.17420386E+002	
1.53010291E+000	-1.17421366E+002	
1.55081622E+000	-1.17405347E+002	
1.57152953E+000	-1.17405309E+002	
