Acquired on 5/10/2021 at 16:36:36
Calibrated on 5/10/2021 at 10:35:08
Device Descriptor:  [none]
Scan Range (nm):  1539.624  --  1560.517
Measurement Type:  Reflection
Group Index:  1.500
Gain:  24 dB
Domain:  Time
Spatial Resolution (mm):  50.000000
Frequency domain window was applied to measurement data.
Number of Data Points (in this file):  16384
NOTE: Data stored in this file is decimated by a factor of 64.

Time (ns)	Amplitude (dB)	
-1.00072081E+001	-1.20248482E+002	
-9.98649484E+000	-1.19920340E+002	
-9.96578154E+000	-1.19600746E+002	
-9.94506823E+000	-1.19347059E+002	
-9.92435493E+000	-1.19118601E+002	
-9.90364162E+000	-1.18887556E+002	
-9.88292832E+000	-1.18673281E+002	
-9.86221501E+000	-1.18455769E+002	
-9.84150171E+000	-1.18264443E+002	
-9.82078840E+000	-1.18085496E+002	
-9.80007509E+000	-1.17878794E+002	
-9.77936179E+000	-1.17688175E+002	
-9.75864848E+000	-1.17630679E+002	
-9.73793518E+000	-1.17662566E+002	
-9.71722187E+000	-1.17661066E+002	
-9.69650857E+000	-1.17671757E+002	
-9.67579526E+000	-1.17742965E+002	
-9.65508196E+000	-1.17725983E+002	
-9.63436865E+000	-1.17677285E+002	
-9.61365535E+000	-1.17676765E+002	
-9.59294204E+000	-1.17688838E+002	
-9.57222874E+000	-1.17725612E+002	
-9.55151543E+000	-1.17752120E+002	
-9.53080213E+000	-1.17734426E+002	
-9.51008882E+000	-1.17768265E+002	
-9.48937552E+000	-1.17795847E+002	
-9.46866221E+000	-1.17781386E+002	
-9.44794890E+000	-1.17756788E+002	
-9.42723560E+000	-1.17702397E+002	
-9.40652229E+000	-1.17680885E+002	
-9.38580899E+000	-1.17647228E+002	
-9.36509568E+000	-1.17640962E+002	
-9.34438238E+000	-1.17593628E+002	
-9.32366907E+000	-1.17565348E+002	
-9.30295577E+000	-1.17577428E+002	
-9.28224246E+000	-1.17581735E+002	
-9.26152916E+000	-1.17527613E+002	
-9.24081585E+000	-1.17464842E+002	
-9.22010255E+000	-1.17445872E+002	
-9.19938924E+000	-1.17480414E+002	
-9.17867594E+000	-1.17450964E+002	
-9.15796263E+000	-1.17443215E+002	
-9.13724932E+000	-1.17499176E+002	
-9.11653602E+000	-1.17506445E+002	
-9.09582271E+000	-1.17485014E+002	
-9.07510941E+000	-1.17481112E+002	
-9.05439610E+000	-1.17472854E+002	
-9.03368280E+000	-1.17352307E+002	
-9.01296949E+000	-1.17344479E+002	
-8.99225619E+000	-1.17343930E+002	
-8.97154288E+000	-1.17388340E+002	
-8.95082958E+000	-1.17390672E+002	
-8.93011627E+000	-1.17418703E+002	
-8.90940297E+000	-1.17448659E+002	
-8.88868966E+000	-1.17475842E+002	
-8.86797636E+000	-1.17465740E+002	
-8.84726305E+000	-1.17475268E+002	
-8.82654974E+000	-1.17455435E+002	
-8.80583644E+000	-1.17469401E+002	
-8.78512313E+000	-1.17466245E+002	
-8.76440983E+000	-1.17474429E+002	
-8.74369652E+000	-1.17539696E+002	
-8.72298322E+000	-1.17558243E+002	
-8.70226991E+000	-1.17489677E+002	
-8.68155661E+000	-1.17469084E+002	
-8.66084330E+000	-1.17500955E+002	
-8.64013000E+000	-1.17457230E+002	
-8.61941669E+000	-1.17407836E+002	
-8.59870339E+000	-1.17430838E+002	
-8.57799008E+000	-1.17434833E+002	
-8.55727678E+000	-1.17411711E+002	
-8.53656347E+000	-1.17539003E+002	
-8.51585017E+000	-1.17545981E+002	
-8.49513686E+000	-1.17546261E+002	
-8.47442355E+000	-1.17534558E+002	
-8.45371025E+000	-1.17558997E+002	
-8.43299694E+000	-1.17591577E+002	
-8.41228364E+000	-1.17565677E+002	
-8.39157033E+000	-1.17553172E+002	
-8.37085703E+000	-1.17595406E+002	
-8.35014372E+000	-1.17612350E+002	
-8.32943042E+000	-1.17646082E+002	
-8.30871711E+000	-1.17596371E+002	
-8.28800381E+000	-1.17632999E+002	
-8.26729050E+000	-1.17633912E+002	
-8.24657720E+000	-1.17625036E+002	
-8.22586389E+000	-1.17607152E+002	
-8.20515059E+000	-1.17660093E+002	
-8.18443728E+000	-1.17660569E+002	
-8.16372397E+000	-1.17642926E+002	
-8.14301067E+000	-1.17611823E+002	
-8.12229736E+000	-1.17633694E+002	
-8.10158406E+000	-1.17647059E+002	
-8.08087075E+000	-1.17642082E+002	
-8.06015745E+000	-1.17613834E+002	
-8.03944414E+000	-1.17558401E+002	
-8.01873084E+000	-1.17580167E+002	
-7.99801753E+000	-1.17575305E+002	
-7.97730423E+000	-1.17565838E+002	
-7.95659092E+000	-1.17539346E+002	
-7.93587762E+000	-1.17561980E+002	
-7.91516431E+000	-1.17594057E+002	
-7.89445101E+000	-1.17583286E+002	
-7.87373770E+000	-1.17560786E+002	
-7.85302439E+000	-1.17552814E+002	
-7.83231109E+000	-1.17530427E+002	
-7.81159778E+000	-1.17574595E+002	
-7.79088448E+000	-1.17594673E+002	
-7.77017117E+000	-1.17613132E+002	
-7.74945787E+000	-1.17627498E+002	
-7.72874456E+000	-1.17643621E+002	
-7.70803126E+000	-1.17605732E+002	
-7.68731795E+000	-1.17636886E+002	
-7.66660465E+000	-1.17632299E+002	
-7.64589134E+000	-1.17630281E+002	
-7.62517804E+000	-1.17627913E+002	
-7.60446473E+000	-1.17545437E+002	
-7.58375143E+000	-1.17561288E+002	
-7.56303812E+000	-1.17597541E+002	
-7.54232482E+000	-1.17655768E+002	
-7.52161151E+000	-1.17632827E+002	
-7.50089820E+000	-1.17643705E+002	
-7.48018490E+000	-1.17630495E+002	
-7.45947159E+000	-1.17669217E+002	
-7.43875829E+000	-1.17592946E+002	
-7.41804498E+000	-1.17516045E+002	
-7.39733168E+000	-1.17553182E+002	
-7.37661837E+000	-1.17551035E+002	
-7.35590507E+000	-1.17563925E+002	
-7.33519176E+000	-1.17590128E+002	
-7.31447846E+000	-1.17615919E+002	
-7.29376515E+000	-1.17600556E+002	
-7.27305185E+000	-1.17578671E+002	
-7.25233854E+000	-1.17603177E+002	
-7.23162524E+000	-1.17603705E+002	
-7.21091193E+000	-1.17591053E+002	
-7.19019862E+000	-1.17580421E+002	
-7.16948532E+000	-1.17625982E+002	
-7.14877201E+000	-1.17694976E+002	
-7.12805871E+000	-1.17737745E+002	
-7.10734540E+000	-1.17813056E+002	
-7.08663210E+000	-1.17852810E+002	
-7.06591879E+000	-1.17834320E+002	
-7.04520549E+000	-1.17830201E+002	
-7.02449218E+000	-1.17815983E+002	
-7.00377888E+000	-1.17790881E+002	
-6.98306557E+000	-1.17816617E+002	
-6.96235227E+000	-1.17785739E+002	
-6.94163896E+000	-1.17826737E+002	
-6.92092566E+000	-1.17887306E+002	
-6.90021235E+000	-1.17895042E+002	
-6.87949904E+000	-1.17880847E+002	
-6.85878574E+000	-1.17868577E+002	
-6.83807243E+000	-1.17893041E+002	
-6.81735913E+000	-1.17908815E+002	
-6.79664582E+000	-1.17860041E+002	
-6.77593252E+000	-1.17891182E+002	
-6.75521921E+000	-1.17841879E+002	
-6.73450591E+000	-1.17847473E+002	
-6.71379260E+000	-1.17828959E+002	
-6.69307930E+000	-1.17827795E+002	
-6.67236599E+000	-1.17778135E+002	
-6.65165269E+000	-1.17757168E+002	
-6.63093938E+000	-1.17768319E+002	
-6.61022608E+000	-1.17785956E+002	
-6.58951277E+000	-1.17784012E+002	
-6.56879947E+000	-1.17765431E+002	
-6.54808616E+000	-1.17735488E+002	
-6.52737285E+000	-1.17723504E+002	
-6.50665955E+000	-1.17753100E+002	
-6.48594624E+000	-1.17792707E+002	
-6.46523294E+000	-1.17827151E+002	
-6.44451963E+000	-1.17748770E+002	
-6.42380633E+000	-1.17701282E+002	
-6.40309302E+000	-1.17685979E+002	
-6.38237972E+000	-1.17659930E+002	
-6.36166641E+000	-1.17656795E+002	
-6.34095311E+000	-1.17660800E+002	
-6.32023980E+000	-1.17651302E+002	
-6.29952650E+000	-1.17666907E+002	
-6.27881319E+000	-1.17630503E+002	
-6.25809989E+000	-1.17645922E+002	
-6.23738658E+000	-1.17634706E+002	
-6.21667327E+000	-1.17615279E+002	
-6.19595997E+000	-1.17624287E+002	
-6.17524666E+000	-1.17612135E+002	
-6.15453336E+000	-1.17622826E+002	
-6.13382005E+000	-1.17606837E+002	
-6.11310675E+000	-1.17610075E+002	
-6.09239344E+000	-1.17600310E+002	
-6.07168014E+000	-1.17557555E+002	
-6.05096683E+000	-1.17624976E+002	
-6.03025353E+000	-1.17622540E+002	
-6.00954022E+000	-1.17588959E+002	
-5.98882692E+000	-1.17542669E+002	
-5.96811361E+000	-1.17551547E+002	
-5.94740031E+000	-1.17597220E+002	
-5.92668700E+000	-1.17643287E+002	
-5.90597369E+000	-1.17660907E+002	
-5.88526039E+000	-1.17705192E+002	
-5.86454708E+000	-1.17723514E+002	
-5.84383378E+000	-1.17688268E+002	
-5.82312047E+000	-1.17694842E+002	
-5.80240717E+000	-1.17662646E+002	
-5.78169386E+000	-1.17678280E+002	
-5.76098056E+000	-1.17686494E+002	
-5.74026725E+000	-1.17683771E+002	
-5.71955395E+000	-1.17718028E+002	
-5.69884064E+000	-1.17721310E+002	
-5.67812734E+000	-1.17752255E+002	
-5.65741403E+000	-1.17749122E+002	
-5.63670073E+000	-1.17751905E+002	
-5.61598742E+000	-1.17727777E+002	
-5.59527412E+000	-1.17688435E+002	
-5.57456081E+000	-1.17748420E+002	
-5.55384750E+000	-1.17673732E+002	
-5.53313420E+000	-1.17611315E+002	
-5.51242089E+000	-1.17635027E+002	
-5.49170759E+000	-1.17639528E+002	
-5.47099428E+000	-1.17612601E+002	
-5.45028098E+000	-1.17663071E+002	
-5.42956767E+000	-1.17708359E+002	
-5.40885437E+000	-1.17692117E+002	
-5.38814106E+000	-1.17682451E+002	
-5.36742776E+000	-1.17666593E+002	
-5.34671445E+000	-1.17699055E+002	
-5.32600115E+000	-1.17698477E+002	
-5.30528784E+000	-1.17720647E+002	
-5.28457454E+000	-1.17706200E+002	
-5.26386123E+000	-1.17683182E+002	
-5.24314792E+000	-1.17625006E+002	
-5.22243462E+000	-1.17608276E+002	
-5.20172131E+000	-1.17611691E+002	
-5.18100801E+000	-1.17579562E+002	
-5.16029470E+000	-1.17574289E+002	
-5.13958140E+000	-1.17528161E+002	
-5.11886809E+000	-1.17505569E+002	
-5.09815479E+000	-1.17517475E+002	
-5.07744148E+000	-1.17484252E+002	
-5.05672818E+000	-1.17553997E+002	
-5.03601487E+000	-1.17581972E+002	
-5.01530157E+000	-1.17623381E+002	
-4.99458826E+000	-1.17631982E+002	
-4.97387496E+000	-1.17584318E+002	
-4.95316165E+000	-1.17584981E+002	
-4.93244834E+000	-1.17537320E+002	
-4.91173504E+000	-1.17523064E+002	
-4.89102173E+000	-1.17518905E+002	
-4.87030843E+000	-1.17541865E+002	
-4.84959512E+000	-1.17524484E+002	
-4.82888182E+000	-1.17488277E+002	
-4.80816851E+000	-1.17476423E+002	
-4.78745521E+000	-1.17485886E+002	
-4.76674190E+000	-1.17505260E+002	
-4.74602860E+000	-1.17527485E+002	
-4.72531529E+000	-1.17577834E+002	
-4.70460199E+000	-1.17566084E+002	
-4.68388868E+000	-1.17603584E+002	
-4.66317538E+000	-1.17584823E+002	
-4.64246207E+000	-1.17628684E+002	
-4.62174877E+000	-1.17671786E+002	
-4.60103546E+000	-1.17699502E+002	
-4.58032215E+000	-1.17718157E+002	
-4.55960885E+000	-1.17681588E+002	
-4.53889554E+000	-1.17716201E+002	
-4.51818224E+000	-1.17639653E+002	
-4.49746893E+000	-1.17596574E+002	
-4.47675563E+000	-1.17633255E+002	
-4.45604232E+000	-1.17611133E+002	
-4.43532902E+000	-1.17617157E+002	
-4.41461571E+000	-1.17613571E+002	
-4.39390241E+000	-1.17620911E+002	
-4.37318910E+000	-1.17626850E+002	
-4.35247580E+000	-1.17611544E+002	
-4.33176249E+000	-1.17600866E+002	
-4.31104919E+000	-1.17597619E+002	
-4.29033588E+000	-1.17590602E+002	
-4.26962257E+000	-1.17587262E+002	
-4.24890927E+000	-1.17631745E+002	
-4.22819596E+000	-1.17638575E+002	
-4.20748266E+000	-1.17672127E+002	
-4.18676935E+000	-1.17634841E+002	
-4.16605605E+000	-1.17643780E+002	
-4.14534274E+000	-1.17656283E+002	
-4.12462944E+000	-1.17613695E+002	
-4.10391613E+000	-1.17609237E+002	
-4.08320283E+000	-1.17601066E+002	
-4.06248952E+000	-1.17590370E+002	
-4.04177622E+000	-1.17546984E+002	
-4.02106291E+000	-1.17580008E+002	
-4.00034961E+000	-1.17581163E+002	
-3.97963630E+000	-1.17547220E+002	
-3.95892299E+000	-1.17556129E+002	
-3.93820969E+000	-1.17524885E+002	
-3.91749638E+000	-1.17537744E+002	
-3.89678308E+000	-1.17508841E+002	
-3.87606977E+000	-1.17449558E+002	
-3.85535647E+000	-1.17454971E+002	
-3.83464316E+000	-1.17440624E+002	
-3.81392986E+000	-1.17442570E+002	
-3.79321655E+000	-1.17466687E+002	
-3.77250325E+000	-1.17420120E+002	
-3.75178994E+000	-1.17429409E+002	
-3.73107664E+000	-1.17425238E+002	
-3.71036333E+000	-1.17364136E+002	
-3.68965003E+000	-1.17379768E+002	
-3.66893672E+000	-1.17430392E+002	
-3.64822342E+000	-1.17398025E+002	
-3.62751011E+000	-1.17421229E+002	
-3.60679680E+000	-1.17425150E+002	
-3.58608350E+000	-1.17429461E+002	
-3.56537019E+000	-1.17457826E+002	
-3.54465689E+000	-1.17463260E+002	
-3.52394358E+000	-1.17482267E+002	
-3.50323028E+000	-1.17522230E+002	
-3.48251697E+000	-1.17553946E+002	
-3.46180367E+000	-1.17595398E+002	
-3.44109036E+000	-1.17615879E+002	
-3.42037706E+000	-1.17646120E+002	
-3.39966375E+000	-1.17688142E+002	
-3.37895045E+000	-1.17730644E+002	
-3.35823714E+000	-1.17724553E+002	
-3.33752384E+000	-1.17736097E+002	
-3.31681053E+000	-1.17733293E+002	
-3.29609722E+000	-1.17706621E+002	
-3.27538392E+000	-1.17728142E+002	
-3.25467061E+000	-1.17743503E+002	
-3.23395731E+000	-1.17745446E+002	
-3.21324400E+000	-1.17776323E+002	
-3.19253070E+000	-1.17781387E+002	
-3.17181739E+000	-1.17744599E+002	
-3.15110409E+000	-1.17724566E+002	
-3.13039078E+000	-1.17722121E+002	
-3.10967748E+000	-1.17760251E+002	
-3.08896417E+000	-1.17735403E+002	
-3.06825087E+000	-1.17713880E+002	
-3.04753756E+000	-1.17748823E+002	
-3.02682426E+000	-1.17729606E+002	
-3.00611095E+000	-1.17660464E+002	
-2.98539764E+000	-1.17706746E+002	
-2.96468434E+000	-1.17666057E+002	
-2.94397103E+000	-1.17642708E+002	
-2.92325773E+000	-1.17603034E+002	
-2.90254442E+000	-1.17590792E+002	
-2.88183112E+000	-1.17611505E+002	
-2.86111781E+000	-1.17653998E+002	
-2.84040451E+000	-1.17695824E+002	
-2.81969120E+000	-1.17728567E+002	
-2.79897790E+000	-1.17802691E+002	
-2.77826459E+000	-1.17776497E+002	
-2.75755129E+000	-1.17750093E+002	
-2.73683798E+000	-1.17755167E+002	
-2.71612468E+000	-1.17704540E+002	
-2.69541137E+000	-1.17691065E+002	
-2.67469807E+000	-1.17757682E+002	
-2.65398476E+000	-1.17791341E+002	
-2.63327145E+000	-1.17779904E+002	
-2.61255815E+000	-1.17723975E+002	
-2.59184484E+000	-1.17729984E+002	
-2.57113154E+000	-1.17728244E+002	
-2.55041823E+000	-1.17717034E+002	
-2.52970493E+000	-1.17772922E+002	
-2.50899162E+000	-1.17837561E+002	
-2.48827832E+000	-1.17823617E+002	
-2.46756501E+000	-1.17835960E+002	
-2.44685171E+000	-1.17836748E+002	
-2.42613840E+000	-1.17864609E+002	
-2.40542510E+000	-1.17887714E+002	
-2.38471179E+000	-1.17881196E+002	
-2.36399849E+000	-1.17864197E+002	
-2.34328518E+000	-1.17809958E+002	
-2.32257187E+000	-1.17771593E+002	
-2.30185857E+000	-1.17701041E+002	
-2.28114526E+000	-1.17704959E+002	
-2.26043196E+000	-1.17769042E+002	
-2.23971865E+000	-1.17748951E+002	
-2.21900535E+000	-1.17798722E+002	
-2.19829204E+000	-1.17830731E+002	
-2.17757874E+000	-1.17798440E+002	
-2.15686543E+000	-1.17777473E+002	
-2.13615213E+000	-1.17818160E+002	
-2.11543882E+000	-1.17828765E+002	
-2.09472552E+000	-1.17851034E+002	
-2.07401221E+000	-1.17831110E+002	
-2.05329891E+000	-1.17784656E+002	
-2.03258560E+000	-1.17797137E+002	
-2.01187229E+000	-1.17800125E+002	
-1.99115899E+000	-1.17794364E+002	
-1.97044568E+000	-1.17732782E+002	
-1.94973238E+000	-1.17745311E+002	
-1.92901907E+000	-1.17725156E+002	
-1.90830577E+000	-1.17673135E+002	
-1.88759246E+000	-1.17660546E+002	
-1.86687916E+000	-1.17680680E+002	
-1.84616585E+000	-1.17652975E+002	
-1.82545255E+000	-1.17730700E+002	
-1.80473924E+000	-1.17731837E+002	
-1.78402594E+000	-1.17768168E+002	
-1.76331263E+000	-1.17772389E+002	
-1.74259933E+000	-1.17738348E+002	
-1.72188602E+000	-1.17739098E+002	
-1.70117272E+000	-1.17797261E+002	
-1.68045941E+000	-1.17809399E+002	
-1.65974610E+000	-1.17760960E+002	
-1.63903280E+000	-1.17730331E+002	
-1.61831949E+000	-1.17779180E+002	
-1.59760619E+000	-1.17779336E+002	
-1.57689288E+000	-1.17792216E+002	
-1.55617958E+000	-1.17855509E+002	
-1.53546627E+000	-1.17842886E+002	
-1.51475297E+000	-1.17840002E+002	
-1.49403966E+000	-1.17807353E+002	
-1.47332636E+000	-1.17836214E+002	
-1.45261305E+000	-1.17805813E+002	
-1.43189975E+000	-1.17808151E+002	
-1.41118644E+000	-1.17796016E+002	
-1.39047314E+000	-1.17814241E+002	
-1.36975983E+000	-1.17781875E+002	
-1.34904652E+000	-1.17784051E+002	
-1.32833322E+000	-1.17737518E+002	
-1.30761991E+000	-1.17707299E+002	
-1.28690661E+000	-1.17711227E+002	
-1.26619330E+000	-1.17698721E+002	
-1.24548000E+000	-1.17737719E+002	
-1.22476669E+000	-1.17772065E+002	
-1.20405339E+000	-1.17673908E+002	
-1.18334008E+000	-1.17673282E+002	
-1.16262678E+000	-1.17744486E+002	
-1.14191347E+000	-1.17768291E+002	
-1.12120017E+000	-1.17759667E+002	
-1.10048686E+000	-1.17732021E+002	
-1.07977356E+000	-1.17733699E+002	
-1.05906025E+000	-1.17754252E+002	
-1.03834694E+000	-1.17725394E+002	
-1.01763364E+000	-1.17675643E+002	
-9.96920334E-001	-1.17629415E+002	
-9.76207029E-001	-1.17616810E+002	
-9.55493724E-001	-1.17630901E+002	
-9.34780418E-001	-1.17649679E+002	
-9.14067113E-001	-1.17715806E+002	
-8.93353808E-001	-1.17708382E+002	
-8.72640502E-001	-1.17690607E+002	
-8.51927197E-001	-1.17731099E+002	
-8.31213892E-001	-1.17753263E+002	
-8.10500586E-001	-1.17794337E+002	
-7.89787281E-001	-1.17805804E+002	
-7.69073976E-001	-1.17812496E+002	
-7.48360671E-001	-1.17793996E+002	
-7.27647365E-001	-1.17782175E+002	
-7.06934060E-001	-1.17825512E+002	
-6.86220755E-001	-1.17846093E+002	
-6.65507449E-001	-1.17873013E+002	
-6.44794144E-001	-1.17871336E+002	
-6.24080839E-001	-1.17839033E+002	
-6.03367533E-001	-1.17835282E+002	
-5.82654228E-001	-1.17816972E+002	
-5.61940923E-001	-1.17765494E+002	
-5.41227617E-001	-1.17735822E+002	
-5.20514312E-001	-1.17746797E+002	
-4.99801007E-001	-1.17826505E+002	
-4.79087701E-001	-1.17884752E+002	
-4.58374396E-001	-1.17901933E+002	
-4.37661091E-001	-1.17862517E+002	
-4.16947785E-001	-1.17818087E+002	
-3.96234480E-001	-1.17806974E+002	
-3.75521175E-001	-1.17821899E+002	
-3.54807869E-001	-1.17822400E+002	
-3.34094564E-001	-1.17834441E+002	
-3.13381259E-001	-1.17864907E+002	
-2.92667954E-001	-1.17865033E+002	
-2.71954648E-001	-1.17820825E+002	
-2.51241343E-001	-1.06231439E+002	
-2.30528038E-001	-1.05974093E+002	
-2.09814732E-001	-1.05972410E+002	
-1.89101427E-001	-1.05965999E+002	
-1.68388122E-001	-1.05958158E+002	
-1.47674816E-001	-1.05955073E+002	
-1.26961511E-001	-1.05954481E+002	
-1.06248206E-001	-1.05946696E+002	
-8.55349003E-002	-1.05944493E+002	
-6.48215950E-002	-1.05943180E+002	
-4.41082897E-002	-1.05944815E+002	
-2.33949844E-002	-1.05943575E+002	
-2.68167905E-003	-1.05942235E+002	
1.80316263E-002	-1.05935873E+002	
3.87449316E-002	-1.05932996E+002	
5.94582369E-002	-1.05933817E+002	
8.01715422E-002	-1.05935841E+002	
1.00884848E-001	-1.05934749E+002	
1.21598153E-001	-1.05928613E+002	
1.42311458E-001	-1.05926042E+002	
1.63024763E-001	-1.05924636E+002	
1.83738069E-001	-1.05920628E+002	
2.04451374E-001	-1.05915481E+002	
2.25164679E-001	-1.05917339E+002	
2.45877985E-001	-1.11593627E+002	
2.66591290E-001	-1.17035659E+002	
2.87304595E-001	-1.17039433E+002	
3.08017901E-001	-1.17095078E+002	
3.28731206E-001	-1.17140706E+002	
3.49444511E-001	-1.17145924E+002	
3.70157817E-001	-1.17176779E+002	
3.90871122E-001	-1.17251808E+002	
4.11584427E-001	-1.17218204E+002	
4.32297733E-001	-1.17197841E+002	
4.53011038E-001	-1.17188748E+002	
4.73724343E-001	-1.17195484E+002	
4.94437649E-001	-1.17183880E+002	
5.15150954E-001	-1.17223356E+002	
5.35864259E-001	-1.17229889E+002	
5.56577565E-001	-1.17266978E+002	
5.77290870E-001	-1.17218396E+002	
5.98004175E-001	-1.17190280E+002	
6.18717481E-001	-1.17238656E+002	
6.39430786E-001	-1.17244917E+002	
6.60144091E-001	-1.17230193E+002	
6.80857396E-001	-1.17266359E+002	
7.01570702E-001	-1.17288801E+002	
7.22284007E-001	-1.17290447E+002	
7.42997312E-001	-1.17264266E+002	
7.63710618E-001	-1.17259490E+002	
7.84423923E-001	-1.17227923E+002	
8.05137228E-001	-1.17211195E+002	
8.25850534E-001	-1.17194207E+002	
8.46563839E-001	-1.17170987E+002	
8.67277144E-001	-1.17152823E+002	
8.87990450E-001	-1.17145689E+002	
9.08703755E-001	-1.17247736E+002	
9.29417060E-001	-1.17304921E+002	
9.50130366E-001	-1.17333950E+002	
9.70843671E-001	-1.17296031E+002	
9.91556976E-001	-1.17286372E+002	
1.01227028E+000	-1.17311761E+002	
1.03298359E+000	-1.17308203E+002	
1.05369689E+000	-1.17273467E+002	
1.07441020E+000	-1.17285562E+002	
1.09512350E+000	-1.17296052E+002	
1.11583681E+000	-1.17356588E+002	
1.13655011E+000	-1.17359949E+002	
1.15726342E+000	-1.17359311E+002	
1.17797672E+000	-1.17327589E+002	
1.19869003E+000	-1.17372613E+002	
1.21940333E+000	-1.17349254E+002	
1.24011664E+000	-1.17359586E+002	
1.26082995E+000	-1.17348302E+002	
1.28154325E+000	-1.17358148E+002	
1.30225656E+000	-1.17365403E+002	
1.32296986E+000	-1.17366369E+002	
1.34368317E+000	-1.17390630E+002	
1.36439647E+000	-1.17449629E+002	
1.38510978E+000	-1.17455633E+002	
1.40582308E+000	-1.17392734E+002	
1.42653639E+000	-1.17395634E+002	
1.44724969E+000	-1.17380853E+002	
1.46796300E+000	-1.17385100E+002	
1.48867630E+000	-1.17409252E+002	
1.50938961E+000	-1.17392291E+002	
1.53010291E+000	-1.17388693E+002	
1.55081622E+000	-1.17379202E+002	
1.57152953E+000	-1.17384482E+002	
