Acquired on 5/10/2021 at 16:43:49
Calibrated on 5/10/2021 at 10:35:08
Device Descriptor:  [none]
Scan Range (nm):  1539.624  --  1560.517
Measurement Type:  Reflection
Group Index:  1.500
Gain:  24 dB
Domain:  Time
Spatial Resolution (mm):  50.000000
Frequency domain window was applied to measurement data.
Number of Data Points (in this file):  16384
NOTE: Data stored in this file is decimated by a factor of 64.

Time (ns)	Amplitude (dB)	
-1.00072081E+001	-1.20304752E+002	
-9.98649484E+000	-1.19979945E+002	
-9.96578154E+000	-1.19653925E+002	
-9.94506823E+000	-1.19393671E+002	
-9.92435493E+000	-1.19165556E+002	
-9.90364162E+000	-1.18927148E+002	
-9.88292832E+000	-1.18713873E+002	
-9.86221501E+000	-1.18492116E+002	
-9.84150171E+000	-1.18304413E+002	
-9.82078840E+000	-1.18127100E+002	
-9.80007509E+000	-1.17917846E+002	
-9.77936179E+000	-1.17729849E+002	
-9.75864848E+000	-1.17671512E+002	
-9.73793518E+000	-1.17695695E+002	
-9.71722187E+000	-1.17689531E+002	
-9.69650857E+000	-1.17698155E+002	
-9.67579526E+000	-1.17767250E+002	
-9.65508196E+000	-1.17752746E+002	
-9.63436865E+000	-1.17700597E+002	
-9.61365535E+000	-1.17694799E+002	
-9.59294204E+000	-1.17708268E+002	
-9.57222874E+000	-1.17746951E+002	
-9.55151543E+000	-1.17771225E+002	
-9.53080213E+000	-1.17751986E+002	
-9.51008882E+000	-1.17784674E+002	
-9.48937552E+000	-1.17804773E+002	
-9.46866221E+000	-1.17788721E+002	
-9.44794890E+000	-1.17763488E+002	
-9.42723560E+000	-1.17712908E+002	
-9.40652229E+000	-1.17700635E+002	
-9.38580899E+000	-1.17664562E+002	
-9.36509568E+000	-1.17662726E+002	
-9.34438238E+000	-1.17612233E+002	
-9.32366907E+000	-1.17579747E+002	
-9.30295577E+000	-1.17586380E+002	
-9.28224246E+000	-1.17594509E+002	
-9.26152916E+000	-1.17552891E+002	
-9.24081585E+000	-1.17495785E+002	
-9.22010255E+000	-1.17474412E+002	
-9.19938924E+000	-1.17508013E+002	
-9.17867594E+000	-1.17480880E+002	
-9.15796263E+000	-1.17467293E+002	
-9.13724932E+000	-1.17526722E+002	
-9.11653602E+000	-1.17534707E+002	
-9.09582271E+000	-1.17516390E+002	
-9.07510941E+000	-1.17513946E+002	
-9.05439610E+000	-1.17503582E+002	
-9.03368280E+000	-1.17383948E+002	
-9.01296949E+000	-1.17371198E+002	
-8.99225619E+000	-1.17369593E+002	
-8.97154288E+000	-1.17415698E+002	
-8.95082958E+000	-1.17427163E+002	
-8.93011627E+000	-1.17451859E+002	
-8.90940297E+000	-1.17475885E+002	
-8.88868966E+000	-1.17502416E+002	
-8.86797636E+000	-1.17490565E+002	
-8.84726305E+000	-1.17498031E+002	
-8.82654974E+000	-1.17482593E+002	
-8.80583644E+000	-1.17505485E+002	
-8.78512313E+000	-1.17499139E+002	
-8.76440983E+000	-1.17494232E+002	
-8.74369652E+000	-1.17551267E+002	
-8.72298322E+000	-1.17569210E+002	
-8.70226991E+000	-1.17500104E+002	
-8.68155661E+000	-1.17478823E+002	
-8.66084330E+000	-1.17503414E+002	
-8.64013000E+000	-1.17457003E+002	
-8.61941669E+000	-1.17414217E+002	
-8.59870339E+000	-1.17433692E+002	
-8.57799008E+000	-1.17431946E+002	
-8.55727678E+000	-1.17399790E+002	
-8.53656347E+000	-1.17509413E+002	
-8.51585017E+000	-1.17511677E+002	
-8.49513686E+000	-1.17512785E+002	
-8.47442355E+000	-1.17502367E+002	
-8.45371025E+000	-1.17516300E+002	
-8.43299694E+000	-1.17548530E+002	
-8.41228364E+000	-1.17520168E+002	
-8.39157033E+000	-1.17508357E+002	
-8.37085703E+000	-1.17549539E+002	
-8.35014372E+000	-1.17567005E+002	
-8.32943042E+000	-1.17591367E+002	
-8.30871711E+000	-1.17537649E+002	
-8.28800381E+000	-1.17573051E+002	
-8.26729050E+000	-1.17572515E+002	
-8.24657720E+000	-1.17567976E+002	
-8.22586389E+000	-1.17549035E+002	
-8.20515059E+000	-1.17602817E+002	
-8.18443728E+000	-1.17602822E+002	
-8.16372397E+000	-1.17595998E+002	
-8.14301067E+000	-1.17566638E+002	
-8.12229736E+000	-1.17581579E+002	
-8.10158406E+000	-1.17588110E+002	
-8.08087075E+000	-1.17588034E+002	
-8.06015745E+000	-1.17565064E+002	
-8.03944414E+000	-1.17518274E+002	
-8.01873084E+000	-1.17541617E+002	
-7.99801753E+000	-1.17543108E+002	
-7.97730423E+000	-1.17532319E+002	
-7.95659092E+000	-1.17510917E+002	
-7.93587762E+000	-1.17525873E+002	
-7.91516431E+000	-1.17560712E+002	
-7.89445101E+000	-1.17554167E+002	
-7.87373770E+000	-1.17532000E+002	
-7.85302439E+000	-1.17529676E+002	
-7.83231109E+000	-1.17510415E+002	
-7.81159778E+000	-1.17562065E+002	
-7.79088448E+000	-1.17579339E+002	
-7.77017117E+000	-1.17595489E+002	
-7.74945787E+000	-1.17608313E+002	
-7.72874456E+000	-1.17626162E+002	
-7.70803126E+000	-1.17591782E+002	
-7.68731795E+000	-1.17625282E+002	
-7.66660465E+000	-1.17612868E+002	
-7.64589134E+000	-1.17622463E+002	
-7.62517804E+000	-1.17622443E+002	
-7.60446473E+000	-1.17543632E+002	
-7.58375143E+000	-1.17554858E+002	
-7.56303812E+000	-1.17592702E+002	
-7.54232482E+000	-1.17660786E+002	
-7.52161151E+000	-1.17649203E+002	
-7.50089820E+000	-1.17658135E+002	
-7.48018490E+000	-1.17642236E+002	
-7.45947159E+000	-1.17686692E+002	
-7.43875829E+000	-1.17620115E+002	
-7.41804498E+000	-1.17543154E+002	
-7.39733168E+000	-1.17579014E+002	
-7.37661837E+000	-1.17579128E+002	
-7.35590507E+000	-1.17590020E+002	
-7.33519176E+000	-1.17618287E+002	
-7.31447846E+000	-1.17641405E+002	
-7.29376515E+000	-1.17625725E+002	
-7.27305185E+000	-1.17603074E+002	
-7.25233854E+000	-1.17632257E+002	
-7.23162524E+000	-1.17632100E+002	
-7.21091193E+000	-1.17619858E+002	
-7.19019862E+000	-1.17608727E+002	
-7.16948532E+000	-1.17654627E+002	
-7.14877201E+000	-1.17716158E+002	
-7.12805871E+000	-1.17760870E+002	
-7.10734540E+000	-1.17843763E+002	
-7.08663210E+000	-1.17885221E+002	
-7.06591879E+000	-1.17862356E+002	
-7.04520549E+000	-1.17853405E+002	
-7.02449218E+000	-1.17837022E+002	
-7.00377888E+000	-1.17804288E+002	
-6.98306557E+000	-1.17830786E+002	
-6.96235227E+000	-1.17796128E+002	
-6.94163896E+000	-1.17833295E+002	
-6.92092566E+000	-1.17893604E+002	
-6.90021235E+000	-1.17897656E+002	
-6.87949904E+000	-1.17879126E+002	
-6.85878574E+000	-1.17856837E+002	
-6.83807243E+000	-1.17876069E+002	
-6.81735913E+000	-1.17885930E+002	
-6.79664582E+000	-1.17833312E+002	
-6.77593252E+000	-1.17862542E+002	
-6.75521921E+000	-1.17808998E+002	
-6.73450591E+000	-1.17806701E+002	
-6.71379260E+000	-1.17789736E+002	
-6.69307930E+000	-1.17789553E+002	
-6.67236599E+000	-1.17749678E+002	
-6.65165269E+000	-1.17733239E+002	
-6.63093938E+000	-1.17742223E+002	
-6.61022608E+000	-1.17749051E+002	
-6.58951277E+000	-1.17743445E+002	
-6.56879947E+000	-1.17732049E+002	
-6.54808616E+000	-1.17701615E+002	
-6.52737285E+000	-1.17683187E+002	
-6.50665955E+000	-1.17715936E+002	
-6.48594624E+000	-1.17761012E+002	
-6.46523294E+000	-1.17789632E+002	
-6.44451963E+000	-1.17722960E+002	
-6.42380633E+000	-1.17679488E+002	
-6.40309302E+000	-1.17674519E+002	
-6.38237972E+000	-1.17651942E+002	
-6.36166641E+000	-1.17656439E+002	
-6.34095311E+000	-1.17652277E+002	
-6.32023980E+000	-1.17642445E+002	
-6.29952650E+000	-1.17661565E+002	
-6.27881319E+000	-1.17632176E+002	
-6.25809989E+000	-1.17649143E+002	
-6.23738658E+000	-1.17641074E+002	
-6.21667327E+000	-1.17623708E+002	
-6.19595997E+000	-1.17626278E+002	
-6.17524666E+000	-1.17612551E+002	
-6.15453336E+000	-1.17613010E+002	
-6.13382005E+000	-1.17598647E+002	
-6.11310675E+000	-1.17610392E+002	
-6.09239344E+000	-1.17606240E+002	
-6.07168014E+000	-1.17558258E+002	
-6.05096683E+000	-1.17626193E+002	
-6.03025353E+000	-1.17631764E+002	
-6.00954022E+000	-1.17599761E+002	
-5.98882692E+000	-1.17545395E+002	
-5.96811361E+000	-1.17557639E+002	
-5.94740031E+000	-1.17599093E+002	
-5.92668700E+000	-1.17641851E+002	
-5.90597369E+000	-1.17649000E+002	
-5.88526039E+000	-1.17696527E+002	
-5.86454708E+000	-1.17719028E+002	
-5.84383378E+000	-1.17686531E+002	
-5.82312047E+000	-1.17695251E+002	
-5.80240717E+000	-1.17666294E+002	
-5.78169386E+000	-1.17681712E+002	
-5.76098056E+000	-1.17687147E+002	
-5.74026725E+000	-1.17686761E+002	
-5.71955395E+000	-1.17721552E+002	
-5.69884064E+000	-1.17724406E+002	
-5.67812734E+000	-1.17750844E+002	
-5.65741403E+000	-1.17753802E+002	
-5.63670073E+000	-1.17753878E+002	
-5.61598742E+000	-1.17724208E+002	
-5.59527412E+000	-1.17684833E+002	
-5.57456081E+000	-1.17749770E+002	
-5.55384750E+000	-1.17674627E+002	
-5.53313420E+000	-1.17608422E+002	
-5.51242089E+000	-1.17631895E+002	
-5.49170759E+000	-1.17646631E+002	
-5.47099428E+000	-1.17627320E+002	
-5.45028098E+000	-1.17674618E+002	
-5.42956767E+000	-1.17719253E+002	
-5.40885437E+000	-1.17701533E+002	
-5.38814106E+000	-1.17691451E+002	
-5.36742776E+000	-1.17666014E+002	
-5.34671445E+000	-1.17704794E+002	
-5.32600115E+000	-1.17717832E+002	
-5.30528784E+000	-1.17743196E+002	
-5.28457454E+000	-1.17727211E+002	
-5.26386123E+000	-1.17707599E+002	
-5.24314792E+000	-1.17654758E+002	
-5.22243462E+000	-1.17640811E+002	
-5.20172131E+000	-1.17634231E+002	
-5.18100801E+000	-1.17603826E+002	
-5.16029470E+000	-1.17600161E+002	
-5.13958140E+000	-1.17561702E+002	
-5.11886809E+000	-1.17551438E+002	
-5.09815479E+000	-1.17563528E+002	
-5.07744148E+000	-1.17528790E+002	
-5.05672818E+000	-1.17601259E+002	
-5.03601487E+000	-1.17633334E+002	
-5.01530157E+000	-1.17674610E+002	
-4.99458826E+000	-1.17669535E+002	
-4.97387496E+000	-1.17610499E+002	
-4.95316165E+000	-1.17608239E+002	
-4.93244834E+000	-1.17561469E+002	
-4.91173504E+000	-1.17548639E+002	
-4.89102173E+000	-1.17537732E+002	
-4.87030843E+000	-1.17562805E+002	
-4.84959512E+000	-1.17544324E+002	
-4.82888182E+000	-1.17500979E+002	
-4.80816851E+000	-1.17482746E+002	
-4.78745521E+000	-1.17492791E+002	
-4.76674190E+000	-1.17510683E+002	
-4.74602860E+000	-1.17526241E+002	
-4.72531529E+000	-1.17569998E+002	
-4.70460199E+000	-1.17566758E+002	
-4.68388868E+000	-1.17603869E+002	
-4.66317538E+000	-1.17584477E+002	
-4.64246207E+000	-1.17627379E+002	
-4.62174877E+000	-1.17664911E+002	
-4.60103546E+000	-1.17687089E+002	
-4.58032215E+000	-1.17707495E+002	
-4.55960885E+000	-1.17672112E+002	
-4.53889554E+000	-1.17705794E+002	
-4.51818224E+000	-1.17625060E+002	
-4.49746893E+000	-1.17589555E+002	
-4.47675563E+000	-1.17642271E+002	
-4.45604232E+000	-1.17626979E+002	
-4.43532902E+000	-1.17627854E+002	
-4.41461571E+000	-1.17626786E+002	
-4.39390241E+000	-1.17637853E+002	
-4.37318910E+000	-1.17645047E+002	
-4.35247580E+000	-1.17630839E+002	
-4.33176249E+000	-1.17623896E+002	
-4.31104919E+000	-1.17614295E+002	
-4.29033588E+000	-1.17605654E+002	
-4.26962257E+000	-1.17600669E+002	
-4.24890927E+000	-1.17644200E+002	
-4.22819596E+000	-1.17650801E+002	
-4.20748266E+000	-1.17686810E+002	
-4.18676935E+000	-1.17648780E+002	
-4.16605605E+000	-1.17658193E+002	
-4.14534274E+000	-1.17665249E+002	
-4.12462944E+000	-1.17622488E+002	
-4.10391613E+000	-1.17615279E+002	
-4.08320283E+000	-1.17606718E+002	
-4.06248952E+000	-1.17601415E+002	
-4.04177622E+000	-1.17559780E+002	
-4.02106291E+000	-1.17594111E+002	
-4.00034961E+000	-1.17597135E+002	
-3.97963630E+000	-1.17556002E+002	
-3.95892299E+000	-1.17557381E+002	
-3.93820969E+000	-1.17527801E+002	
-3.91749638E+000	-1.17538750E+002	
-3.89678308E+000	-1.17507657E+002	
-3.87606977E+000	-1.17445294E+002	
-3.85535647E+000	-1.17450056E+002	
-3.83464316E+000	-1.17438642E+002	
-3.81392986E+000	-1.17439231E+002	
-3.79321655E+000	-1.17467419E+002	
-3.77250325E+000	-1.17421759E+002	
-3.75178994E+000	-1.17434602E+002	
-3.73107664E+000	-1.17432058E+002	
-3.71036333E+000	-1.17370998E+002	
-3.68965003E+000	-1.17386261E+002	
-3.66893672E+000	-1.17433958E+002	
-3.64822342E+000	-1.17401046E+002	
-3.62751011E+000	-1.17419448E+002	
-3.60679680E+000	-1.17430101E+002	
-3.58608350E+000	-1.17432666E+002	
-3.56537019E+000	-1.17454678E+002	
-3.54465689E+000	-1.17454235E+002	
-3.52394358E+000	-1.17476894E+002	
-3.50323028E+000	-1.17518815E+002	
-3.48251697E+000	-1.17551952E+002	
-3.46180367E+000	-1.17591656E+002	
-3.44109036E+000	-1.17614556E+002	
-3.42037706E+000	-1.17645965E+002	
-3.39966375E+000	-1.17692622E+002	
-3.37895045E+000	-1.17738424E+002	
-3.35823714E+000	-1.17730325E+002	
-3.33752384E+000	-1.17734491E+002	
-3.31681053E+000	-1.17737741E+002	
-3.29609722E+000	-1.17716699E+002	
-3.27538392E+000	-1.17741447E+002	
-3.25467061E+000	-1.17761261E+002	
-3.23395731E+000	-1.17758691E+002	
-3.21324400E+000	-1.17785742E+002	
-3.19253070E+000	-1.17791582E+002	
-3.17181739E+000	-1.17763334E+002	
-3.15110409E+000	-1.17743763E+002	
-3.13039078E+000	-1.17736942E+002	
-3.10967748E+000	-1.17769155E+002	
-3.08896417E+000	-1.17745304E+002	
-3.06825087E+000	-1.17729179E+002	
-3.04753756E+000	-1.17764667E+002	
-3.02682426E+000	-1.17742596E+002	
-3.00611095E+000	-1.17677616E+002	
-2.98539764E+000	-1.17723213E+002	
-2.96468434E+000	-1.17686490E+002	
-2.94397103E+000	-1.17662103E+002	
-2.92325773E+000	-1.17620918E+002	
-2.90254442E+000	-1.17609186E+002	
-2.88183112E+000	-1.17625202E+002	
-2.86111781E+000	-1.17672845E+002	
-2.84040451E+000	-1.17715240E+002	
-2.81969120E+000	-1.17751194E+002	
-2.79897790E+000	-1.17815494E+002	
-2.77826459E+000	-1.17782036E+002	
-2.75755129E+000	-1.17749031E+002	
-2.73683798E+000	-1.17763696E+002	
-2.71612468E+000	-1.17720317E+002	
-2.69541137E+000	-1.17714563E+002	
-2.67469807E+000	-1.17775997E+002	
-2.65398476E+000	-1.17805171E+002	
-2.63327145E+000	-1.17801390E+002	
-2.61255815E+000	-1.17749697E+002	
-2.59184484E+000	-1.17756047E+002	
-2.57113154E+000	-1.17753388E+002	
-2.55041823E+000	-1.17743212E+002	
-2.52970493E+000	-1.17802249E+002	
-2.50899162E+000	-1.17868710E+002	
-2.48827832E+000	-1.17853918E+002	
-2.46756501E+000	-1.17865527E+002	
-2.44685171E+000	-1.17867727E+002	
-2.42613840E+000	-1.17899316E+002	
-2.40542510E+000	-1.17917530E+002	
-2.38471179E+000	-1.17910220E+002	
-2.36399849E+000	-1.17896523E+002	
-2.34328518E+000	-1.17849456E+002	
-2.32257187E+000	-1.17808774E+002	
-2.30185857E+000	-1.17740491E+002	
-2.28114526E+000	-1.17748799E+002	
-2.26043196E+000	-1.17818344E+002	
-2.23971865E+000	-1.17787321E+002	
-2.21900535E+000	-1.17835081E+002	
-2.19829204E+000	-1.17855768E+002	
-2.17757874E+000	-1.17818066E+002	
-2.15686543E+000	-1.17799042E+002	
-2.13615213E+000	-1.17841638E+002	
-2.11543882E+000	-1.17852525E+002	
-2.09472552E+000	-1.17871659E+002	
-2.07401221E+000	-1.17848944E+002	
-2.05329891E+000	-1.17808656E+002	
-2.03258560E+000	-1.17819946E+002	
-2.01187229E+000	-1.17818126E+002	
-1.99115899E+000	-1.17809361E+002	
-1.97044568E+000	-1.17744286E+002	
-1.94973238E+000	-1.17753630E+002	
-1.92901907E+000	-1.17732178E+002	
-1.90830577E+000	-1.17683557E+002	
-1.88759246E+000	-1.17674994E+002	
-1.86687916E+000	-1.17691960E+002	
-1.84616585E+000	-1.17651102E+002	
-1.82545255E+000	-1.17726044E+002	
-1.80473924E+000	-1.17725032E+002	
-1.78402594E+000	-1.17758878E+002	
-1.76331263E+000	-1.17757935E+002	
-1.74259933E+000	-1.17730310E+002	
-1.72188602E+000	-1.17729213E+002	
-1.70117272E+000	-1.17787087E+002	
-1.68045941E+000	-1.17801108E+002	
-1.65974610E+000	-1.17752451E+002	
-1.63903280E+000	-1.17718904E+002	
-1.61831949E+000	-1.17767071E+002	
-1.59760619E+000	-1.17773738E+002	
-1.57689288E+000	-1.17784509E+002	
-1.55617958E+000	-1.17840570E+002	
-1.53546627E+000	-1.17828601E+002	
-1.51475297E+000	-1.17824172E+002	
-1.49403966E+000	-1.17796628E+002	
-1.47332636E+000	-1.17828188E+002	
-1.45261305E+000	-1.17799116E+002	
-1.43189975E+000	-1.17800346E+002	
-1.41118644E+000	-1.17785342E+002	
-1.39047314E+000	-1.17796701E+002	
-1.36975983E+000	-1.17764481E+002	
-1.34904652E+000	-1.17773386E+002	
-1.32833322E+000	-1.17727575E+002	
-1.30761991E+000	-1.17696626E+002	
-1.28690661E+000	-1.17696971E+002	
-1.26619330E+000	-1.17684019E+002	
-1.24548000E+000	-1.17720627E+002	
-1.22476669E+000	-1.17755321E+002	
-1.20405339E+000	-1.17658726E+002	
-1.18334008E+000	-1.17657347E+002	
-1.16262678E+000	-1.17735620E+002	
-1.14191347E+000	-1.17764940E+002	
-1.12120017E+000	-1.17754881E+002	
-1.10048686E+000	-1.17729443E+002	
-1.07977356E+000	-1.17739824E+002	
-1.05906025E+000	-1.17761984E+002	
-1.03834694E+000	-1.17741250E+002	
-1.01763364E+000	-1.17694239E+002	
-9.96920334E-001	-1.17645718E+002	
-9.76207029E-001	-1.17631379E+002	
-9.55493724E-001	-1.17647342E+002	
-9.34780418E-001	-1.17665722E+002	
-9.14067113E-001	-1.17727930E+002	
-8.93353808E-001	-1.17725161E+002	
-8.72640502E-001	-1.17708834E+002	
-8.51927197E-001	-1.17752613E+002	
-8.31213892E-001	-1.17781998E+002	
-8.10500586E-001	-1.17826735E+002	
-7.89787281E-001	-1.17843958E+002	
-7.69073976E-001	-1.17862298E+002	
-7.48360671E-001	-1.17846734E+002	
-7.27647365E-001	-1.17833201E+002	
-7.06934060E-001	-1.17879698E+002	
-6.86220755E-001	-1.17899889E+002	
-6.65507449E-001	-1.17917642E+002	
-6.44794144E-001	-1.17909296E+002	
-6.24080839E-001	-1.17880830E+002	
-6.03367533E-001	-1.17868773E+002	
-5.82654228E-001	-1.17839547E+002	
-5.61940923E-001	-1.17786329E+002	
-5.41227617E-001	-1.17745129E+002	
-5.20514312E-001	-1.17749235E+002	
-4.99801007E-001	-1.17821233E+002	
-4.79087701E-001	-1.17881483E+002	
-4.58374396E-001	-1.17901261E+002	
-4.37661091E-001	-1.17863826E+002	
-4.16947785E-001	-1.17817842E+002	
-3.96234480E-001	-1.17806400E+002	
-3.75521175E-001	-1.17818421E+002	
-3.54807869E-001	-1.17810769E+002	
-3.34094564E-001	-1.17813913E+002	
-3.13381259E-001	-1.17838065E+002	
-2.92667954E-001	-1.17830663E+002	
-2.71954648E-001	-1.17794955E+002	
-2.51241343E-001	-1.06221233E+002	
-2.30528038E-001	-1.05961765E+002	
-2.09814732E-001	-1.05959711E+002	
-1.89101427E-001	-1.05953865E+002	
-1.68388122E-001	-1.05946300E+002	
-1.47674816E-001	-1.05943416E+002	
-1.26961511E-001	-1.05942608E+002	
-1.06248206E-001	-1.05935780E+002	
-8.55349003E-002	-1.05934190E+002	
-6.48215950E-002	-1.05933179E+002	
-4.41082897E-002	-1.05934812E+002	
-2.33949844E-002	-1.05933425E+002	
-2.68167905E-003	-1.05932383E+002	
1.80316263E-002	-1.05926014E+002	
3.87449316E-002	-1.05923167E+002	
5.94582369E-002	-1.05923594E+002	
8.01715422E-002	-1.05926004E+002	
1.00884848E-001	-1.05924977E+002	
1.21598153E-001	-1.05919234E+002	
1.42311458E-001	-1.05916708E+002	
1.63024763E-001	-1.05915565E+002	
1.83738069E-001	-1.05911923E+002	
2.04451374E-001	-1.05907077E+002	
2.25164679E-001	-1.05907893E+002	
2.45877985E-001	-1.11580922E+002	
2.66591290E-001	-1.17041504E+002	
2.87304595E-001	-1.17046546E+002	
3.08017901E-001	-1.17097253E+002	
3.28731206E-001	-1.17146376E+002	
3.49444511E-001	-1.17154563E+002	
3.70157817E-001	-1.17189401E+002	
3.90871122E-001	-1.17255635E+002	
4.11584427E-001	-1.17225339E+002	
4.32297733E-001	-1.17205874E+002	
4.53011038E-001	-1.17206023E+002	
4.73724343E-001	-1.17222569E+002	
4.94437649E-001	-1.17216122E+002	
5.15150954E-001	-1.17255444E+002	
5.35864259E-001	-1.17257238E+002	
5.56577565E-001	-1.17296586E+002	
5.77290870E-001	-1.17240579E+002	
5.98004175E-001	-1.17214091E+002	
6.18717481E-001	-1.17260637E+002	
6.39430786E-001	-1.17271609E+002	
6.60144091E-001	-1.17256972E+002	
6.80857396E-001	-1.17287582E+002	
7.01570702E-001	-1.17311746E+002	
7.22284007E-001	-1.17314491E+002	
7.42997312E-001	-1.17285215E+002	
7.63710618E-001	-1.17279585E+002	
7.84423923E-001	-1.17253566E+002	
8.05137228E-001	-1.17236207E+002	
8.25850534E-001	-1.17215378E+002	
8.46563839E-001	-1.17191148E+002	
8.67277144E-001	-1.17171254E+002	
8.87990450E-001	-1.17164393E+002	
9.08703755E-001	-1.17255312E+002	
9.29417060E-001	-1.17306278E+002	
9.50130366E-001	-1.17324605E+002	
9.70843671E-001	-1.17280594E+002	
9.91556976E-001	-1.17267441E+002	
1.01227028E+000	-1.17290861E+002	
1.03298359E+000	-1.17288173E+002	
1.05369689E+000	-1.17260300E+002	
1.07441020E+000	-1.17279070E+002	
1.09512350E+000	-1.17297241E+002	
1.11583681E+000	-1.17358679E+002	
1.13655011E+000	-1.17363959E+002	
1.15726342E+000	-1.17363121E+002	
1.17797672E+000	-1.17333364E+002	
1.19869003E+000	-1.17381454E+002	
1.21940333E+000	-1.17361594E+002	
1.24011664E+000	-1.17376481E+002	
1.26082995E+000	-1.17374803E+002	
1.28154325E+000	-1.17387063E+002	
1.30225656E+000	-1.17393069E+002	
1.32296986E+000	-1.17392047E+002	
1.34368317E+000	-1.17423656E+002	
1.36439647E+000	-1.17486863E+002	
1.38510978E+000	-1.17487280E+002	
1.40582308E+000	-1.17422440E+002	
1.42653639E+000	-1.17419408E+002	
1.44724969E+000	-1.17404117E+002	
1.46796300E+000	-1.17413957E+002	
1.48867630E+000	-1.17443608E+002	
1.50938961E+000	-1.17429063E+002	
1.53010291E+000	-1.17424213E+002	
1.55081622E+000	-1.17411947E+002	
1.57152953E+000	-1.17415902E+002	
