Acquired on 5/10/2021 at 16:44:35
Calibrated on 5/10/2021 at 10:35:08
Device Descriptor:  [none]
Scan Range (nm):  1539.624  --  1560.517
Measurement Type:  Reflection
Group Index:  1.500
Gain:  24 dB
Domain:  Time
Spatial Resolution (mm):  50.000000
Frequency domain window was applied to measurement data.
Number of Data Points (in this file):  16384
NOTE: Data stored in this file is decimated by a factor of 64.

Time (ns)	Amplitude (dB)	
-1.00072081E+001	-1.20310711E+002	
-9.98649484E+000	-1.19984425E+002	
-9.96578154E+000	-1.19664154E+002	
-9.94506823E+000	-1.19408122E+002	
-9.92435493E+000	-1.19178461E+002	
-9.90364162E+000	-1.18944339E+002	
-9.88292832E+000	-1.18724813E+002	
-9.86221501E+000	-1.18501058E+002	
-9.84150171E+000	-1.18315789E+002	
-9.82078840E+000	-1.18139348E+002	
-9.80007509E+000	-1.17923370E+002	
-9.77936179E+000	-1.17736338E+002	
-9.75864848E+000	-1.17674828E+002	
-9.73793518E+000	-1.17694709E+002	
-9.71722187E+000	-1.17698263E+002	
-9.69650857E+000	-1.17707747E+002	
-9.67579526E+000	-1.17775063E+002	
-9.65508196E+000	-1.17759784E+002	
-9.63436865E+000	-1.17711219E+002	
-9.61365535E+000	-1.17709172E+002	
-9.59294204E+000	-1.17723824E+002	
-9.57222874E+000	-1.17762744E+002	
-9.55151543E+000	-1.17778175E+002	
-9.53080213E+000	-1.17755687E+002	
-9.51008882E+000	-1.17788967E+002	
-9.48937552E+000	-1.17808340E+002	
-9.46866221E+000	-1.17788011E+002	
-9.44794890E+000	-1.17754483E+002	
-9.42723560E+000	-1.17704464E+002	
-9.40652229E+000	-1.17693018E+002	
-9.38580899E+000	-1.17664531E+002	
-9.36509568E+000	-1.17664189E+002	
-9.34438238E+000	-1.17607092E+002	
-9.32366907E+000	-1.17569883E+002	
-9.30295577E+000	-1.17585431E+002	
-9.28224246E+000	-1.17589427E+002	
-9.26152916E+000	-1.17544362E+002	
-9.24081585E+000	-1.17486664E+002	
-9.22010255E+000	-1.17456857E+002	
-9.19938924E+000	-1.17484515E+002	
-9.17867594E+000	-1.17455689E+002	
-9.15796263E+000	-1.17449406E+002	
-9.13724932E+000	-1.17510554E+002	
-9.11653602E+000	-1.17516046E+002	
-9.09582271E+000	-1.17493607E+002	
-9.07510941E+000	-1.17484980E+002	
-9.05439610E+000	-1.17480340E+002	
-9.03368280E+000	-1.17360202E+002	
-9.01296949E+000	-1.17351861E+002	
-8.99225619E+000	-1.17351846E+002	
-8.97154288E+000	-1.17398791E+002	
-8.95082958E+000	-1.17412194E+002	
-8.93011627E+000	-1.17441156E+002	
-8.90940297E+000	-1.17458415E+002	
-8.88868966E+000	-1.17480822E+002	
-8.86797636E+000	-1.17470386E+002	
-8.84726305E+000	-1.17482547E+002	
-8.82654974E+000	-1.17464819E+002	
-8.80583644E+000	-1.17485858E+002	
-8.78512313E+000	-1.17481033E+002	
-8.76440983E+000	-1.17484987E+002	
-8.74369652E+000	-1.17547865E+002	
-8.72298322E+000	-1.17578019E+002	
-8.70226991E+000	-1.17516025E+002	
-8.68155661E+000	-1.17496806E+002	
-8.66084330E+000	-1.17520451E+002	
-8.64013000E+000	-1.17473091E+002	
-8.61941669E+000	-1.17424823E+002	
-8.59870339E+000	-1.17447642E+002	
-8.57799008E+000	-1.17451840E+002	
-8.55727678E+000	-1.17424437E+002	
-8.53656347E+000	-1.17544668E+002	
-8.51585017E+000	-1.17545335E+002	
-8.49513686E+000	-1.17545404E+002	
-8.47442355E+000	-1.17540553E+002	
-8.45371025E+000	-1.17563736E+002	
-8.43299694E+000	-1.17593982E+002	
-8.41228364E+000	-1.17566310E+002	
-8.39157033E+000	-1.17549799E+002	
-8.37085703E+000	-1.17589819E+002	
-8.35014372E+000	-1.17604745E+002	
-8.32943042E+000	-1.17638132E+002	
-8.30871711E+000	-1.17585987E+002	
-8.28800381E+000	-1.17620168E+002	
-8.26729050E+000	-1.17621648E+002	
-8.24657720E+000	-1.17619128E+002	
-8.22586389E+000	-1.17589948E+002	
-8.20515059E+000	-1.17636189E+002	
-8.18443728E+000	-1.17629444E+002	
-8.16372397E+000	-1.17616598E+002	
-8.14301067E+000	-1.17584177E+002	
-8.12229736E+000	-1.17604749E+002	
-8.10158406E+000	-1.17610008E+002	
-8.08087075E+000	-1.17609625E+002	
-8.06015745E+000	-1.17585187E+002	
-8.03944414E+000	-1.17540307E+002	
-8.01873084E+000	-1.17571170E+002	
-7.99801753E+000	-1.17566279E+002	
-7.97730423E+000	-1.17551921E+002	
-7.95659092E+000	-1.17518246E+002	
-7.93587762E+000	-1.17530439E+002	
-7.91516431E+000	-1.17573836E+002	
-7.89445101E+000	-1.17569118E+002	
-7.87373770E+000	-1.17548739E+002	
-7.85302439E+000	-1.17543585E+002	
-7.83231109E+000	-1.17525406E+002	
-7.81159778E+000	-1.17568493E+002	
-7.79088448E+000	-1.17591754E+002	
-7.77017117E+000	-1.17605516E+002	
-7.74945787E+000	-1.17610746E+002	
-7.72874456E+000	-1.17630658E+002	
-7.70803126E+000	-1.17588310E+002	
-7.68731795E+000	-1.17632544E+002	
-7.66660465E+000	-1.17627967E+002	
-7.64589134E+000	-1.17634306E+002	
-7.62517804E+000	-1.17627888E+002	
-7.60446473E+000	-1.17544425E+002	
-7.58375143E+000	-1.17561446E+002	
-7.56303812E+000	-1.17597176E+002	
-7.54232482E+000	-1.17665471E+002	
-7.52161151E+000	-1.17654755E+002	
-7.50089820E+000	-1.17655902E+002	
-7.48018490E+000	-1.17643090E+002	
-7.45947159E+000	-1.17695936E+002	
-7.43875829E+000	-1.17628839E+002	
-7.41804498E+000	-1.17543194E+002	
-7.39733168E+000	-1.17582537E+002	
-7.37661837E+000	-1.17585591E+002	
-7.35590507E+000	-1.17600323E+002	
-7.33519176E+000	-1.17622581E+002	
-7.31447846E+000	-1.17651049E+002	
-7.29376515E+000	-1.17637123E+002	
-7.27305185E+000	-1.17609358E+002	
-7.25233854E+000	-1.17638137E+002	
-7.23162524E+000	-1.17641776E+002	
-7.21091193E+000	-1.17636444E+002	
-7.19019862E+000	-1.17624672E+002	
-7.16948532E+000	-1.17666420E+002	
-7.14877201E+000	-1.17733041E+002	
-7.12805871E+000	-1.17782762E+002	
-7.10734540E+000	-1.17872000E+002	
-7.08663210E+000	-1.17907116E+002	
-7.06591879E+000	-1.17885695E+002	
-7.04520549E+000	-1.17868813E+002	
-7.02449218E+000	-1.17845608E+002	
-7.00377888E+000	-1.17826811E+002	
-6.98306557E+000	-1.17852669E+002	
-6.96235227E+000	-1.17810817E+002	
-6.94163896E+000	-1.17844519E+002	
-6.92092566E+000	-1.17902732E+002	
-6.90021235E+000	-1.17906708E+002	
-6.87949904E+000	-1.17882971E+002	
-6.85878574E+000	-1.17862540E+002	
-6.83807243E+000	-1.17884600E+002	
-6.81735913E+000	-1.17901563E+002	
-6.79664582E+000	-1.17847411E+002	
-6.77593252E+000	-1.17881900E+002	
-6.75521921E+000	-1.17835055E+002	
-6.73450591E+000	-1.17830218E+002	
-6.71379260E+000	-1.17814429E+002	
-6.69307930E+000	-1.17801468E+002	
-6.67236599E+000	-1.17755451E+002	
-6.65165269E+000	-1.17733043E+002	
-6.63093938E+000	-1.17738273E+002	
-6.61022608E+000	-1.17750302E+002	
-6.58951277E+000	-1.17741234E+002	
-6.56879947E+000	-1.17727120E+002	
-6.54808616E+000	-1.17695835E+002	
-6.52737285E+000	-1.17680486E+002	
-6.50665955E+000	-1.17706580E+002	
-6.48594624E+000	-1.17748906E+002	
-6.46523294E+000	-1.17786203E+002	
-6.44451963E+000	-1.17711695E+002	
-6.42380633E+000	-1.17669800E+002	
-6.40309302E+000	-1.17659193E+002	
-6.38237972E+000	-1.17635173E+002	
-6.36166641E+000	-1.17635719E+002	
-6.34095311E+000	-1.17638687E+002	
-6.32023980E+000	-1.17624313E+002	
-6.29952650E+000	-1.17641946E+002	
-6.27881319E+000	-1.17608760E+002	
-6.25809989E+000	-1.17620078E+002	
-6.23738658E+000	-1.17617540E+002	
-6.21667327E+000	-1.17606042E+002	
-6.19595997E+000	-1.17614025E+002	
-6.17524666E+000	-1.17606732E+002	
-6.15453336E+000	-1.17614017E+002	
-6.13382005E+000	-1.17595476E+002	
-6.11310675E+000	-1.17603153E+002	
-6.09239344E+000	-1.17599750E+002	
-6.07168014E+000	-1.17551113E+002	
-6.05096683E+000	-1.17626787E+002	
-6.03025353E+000	-1.17636072E+002	
-6.00954022E+000	-1.17602194E+002	
-5.98882692E+000	-1.17548345E+002	
-5.96811361E+000	-1.17553837E+002	
-5.94740031E+000	-1.17607831E+002	
-5.92668700E+000	-1.17654425E+002	
-5.90597369E+000	-1.17672140E+002	
-5.88526039E+000	-1.17718658E+002	
-5.86454708E+000	-1.17736159E+002	
-5.84383378E+000	-1.17701912E+002	
-5.82312047E+000	-1.17707702E+002	
-5.80240717E+000	-1.17669459E+002	
-5.78169386E+000	-1.17678361E+002	
-5.76098056E+000	-1.17684221E+002	
-5.74026725E+000	-1.17676835E+002	
-5.71955395E+000	-1.17694501E+002	
-5.69884064E+000	-1.17700730E+002	
-5.67812734E+000	-1.17728308E+002	
-5.65741403E+000	-1.17731666E+002	
-5.63670073E+000	-1.17743353E+002	
-5.61598742E+000	-1.17721808E+002	
-5.59527412E+000	-1.17678755E+002	
-5.57456081E+000	-1.17746702E+002	
-5.55384750E+000	-1.17674061E+002	
-5.53313420E+000	-1.17607892E+002	
-5.51242089E+000	-1.17634318E+002	
-5.49170759E+000	-1.17646007E+002	
-5.47099428E+000	-1.17627550E+002	
-5.45028098E+000	-1.17673266E+002	
-5.42956767E+000	-1.17711566E+002	
-5.40885437E+000	-1.17696043E+002	
-5.38814106E+000	-1.17684269E+002	
-5.36742776E+000	-1.17668130E+002	
-5.34671445E+000	-1.17702405E+002	
-5.32600115E+000	-1.17707184E+002	
-5.30528784E+000	-1.17743335E+002	
-5.28457454E+000	-1.17725319E+002	
-5.26386123E+000	-1.17705656E+002	
-5.24314792E+000	-1.17654861E+002	
-5.22243462E+000	-1.17648947E+002	
-5.20172131E+000	-1.17653338E+002	
-5.18100801E+000	-1.17619409E+002	
-5.16029470E+000	-1.17608849E+002	
-5.13958140E+000	-1.17565914E+002	
-5.11886809E+000	-1.17540469E+002	
-5.09815479E+000	-1.17548325E+002	
-5.07744148E+000	-1.17514319E+002	
-5.05672818E+000	-1.17583569E+002	
-5.03601487E+000	-1.17602716E+002	
-5.01530157E+000	-1.17644688E+002	
-4.99458826E+000	-1.17649349E+002	
-4.97387496E+000	-1.17594966E+002	
-4.95316165E+000	-1.17593855E+002	
-4.93244834E+000	-1.17547974E+002	
-4.91173504E+000	-1.17529378E+002	
-4.89102173E+000	-1.17524234E+002	
-4.87030843E+000	-1.17550403E+002	
-4.84959512E+000	-1.17533350E+002	
-4.82888182E+000	-1.17494466E+002	
-4.80816851E+000	-1.17477056E+002	
-4.78745521E+000	-1.17490696E+002	
-4.76674190E+000	-1.17516802E+002	
-4.74602860E+000	-1.17527622E+002	
-4.72531529E+000	-1.17572083E+002	
-4.70460199E+000	-1.17560904E+002	
-4.68388868E+000	-1.17598897E+002	
-4.66317538E+000	-1.17584713E+002	
-4.64246207E+000	-1.17633512E+002	
-4.62174877E+000	-1.17681591E+002	
-4.60103546E+000	-1.17712306E+002	
-4.58032215E+000	-1.17731828E+002	
-4.55960885E+000	-1.17694290E+002	
-4.53889554E+000	-1.17730258E+002	
-4.51818224E+000	-1.17648366E+002	
-4.49746893E+000	-1.17606217E+002	
-4.47675563E+000	-1.17655156E+002	
-4.45604232E+000	-1.17642409E+002	
-4.43532902E+000	-1.17648240E+002	
-4.41461571E+000	-1.17642881E+002	
-4.39390241E+000	-1.17648728E+002	
-4.37318910E+000	-1.17652904E+002	
-4.35247580E+000	-1.17639143E+002	
-4.33176249E+000	-1.17629885E+002	
-4.31104919E+000	-1.17627700E+002	
-4.29033588E+000	-1.17624127E+002	
-4.26962257E+000	-1.17622410E+002	
-4.24890927E+000	-1.17667384E+002	
-4.22819596E+000	-1.17672329E+002	
-4.20748266E+000	-1.17700943E+002	
-4.18676935E+000	-1.17663790E+002	
-4.16605605E+000	-1.17669796E+002	
-4.14534274E+000	-1.17670817E+002	
-4.12462944E+000	-1.17613758E+002	
-4.10391613E+000	-1.17600384E+002	
-4.08320283E+000	-1.17593064E+002	
-4.06248952E+000	-1.17580318E+002	
-4.04177622E+000	-1.17535512E+002	
-4.02106291E+000	-1.17568693E+002	
-4.00034961E+000	-1.17570195E+002	
-3.97963630E+000	-1.17527354E+002	
-3.95892299E+000	-1.17519134E+002	
-3.93820969E+000	-1.17492899E+002	
-3.91749638E+000	-1.17513084E+002	
-3.89678308E+000	-1.17486004E+002	
-3.87606977E+000	-1.17428075E+002	
-3.85535647E+000	-1.17427510E+002	
-3.83464316E+000	-1.17423889E+002	
-3.81392986E+000	-1.17422200E+002	
-3.79321655E+000	-1.17448741E+002	
-3.77250325E+000	-1.17401252E+002	
-3.75178994E+000	-1.17415707E+002	
-3.73107664E+000	-1.17416225E+002	
-3.71036333E+000	-1.17363351E+002	
-3.68965003E+000	-1.17383196E+002	
-3.66893672E+000	-1.17431434E+002	
-3.64822342E+000	-1.17396583E+002	
-3.62751011E+000	-1.17426616E+002	
-3.60679680E+000	-1.17440982E+002	
-3.58608350E+000	-1.17442294E+002	
-3.56537019E+000	-1.17468730E+002	
-3.54465689E+000	-1.17468685E+002	
-3.52394358E+000	-1.17496629E+002	
-3.50323028E+000	-1.17537244E+002	
-3.48251697E+000	-1.17573733E+002	
-3.46180367E+000	-1.17619855E+002	
-3.44109036E+000	-1.17639629E+002	
-3.42037706E+000	-1.17663773E+002	
-3.39966375E+000	-1.17710716E+002	
-3.37895045E+000	-1.17757766E+002	
-3.35823714E+000	-1.17758265E+002	
-3.33752384E+000	-1.17760882E+002	
-3.31681053E+000	-1.17757743E+002	
-3.29609722E+000	-1.17735208E+002	
-3.27538392E+000	-1.17748542E+002	
-3.25467061E+000	-1.17759677E+002	
-3.23395731E+000	-1.17757238E+002	
-3.21324400E+000	-1.17783853E+002	
-3.19253070E+000	-1.17786228E+002	
-3.17181739E+000	-1.17747755E+002	
-3.15110409E+000	-1.17736196E+002	
-3.13039078E+000	-1.17733680E+002	
-3.10967748E+000	-1.17769072E+002	
-3.08896417E+000	-1.17746049E+002	
-3.06825087E+000	-1.17728583E+002	
-3.04753756E+000	-1.17763654E+002	
-3.02682426E+000	-1.17734904E+002	
-3.00611095E+000	-1.17661106E+002	
-2.98539764E+000	-1.17708785E+002	
-2.96468434E+000	-1.17672644E+002	
-2.94397103E+000	-1.17647743E+002	
-2.92325773E+000	-1.17609718E+002	
-2.90254442E+000	-1.17594465E+002	
-2.88183112E+000	-1.17609255E+002	
-2.86111781E+000	-1.17648862E+002	
-2.84040451E+000	-1.17690927E+002	
-2.81969120E+000	-1.17729976E+002	
-2.79897790E+000	-1.17795437E+002	
-2.77826459E+000	-1.17768297E+002	
-2.75755129E+000	-1.17745578E+002	
-2.73683798E+000	-1.17759627E+002	
-2.71612468E+000	-1.17714389E+002	
-2.69541137E+000	-1.17702769E+002	
-2.67469807E+000	-1.17774625E+002	
-2.65398476E+000	-1.17802635E+002	
-2.63327145E+000	-1.17791543E+002	
-2.61255815E+000	-1.17737392E+002	
-2.59184484E+000	-1.17743655E+002	
-2.57113154E+000	-1.17745857E+002	
-2.55041823E+000	-1.17745861E+002	
-2.52970493E+000	-1.17811567E+002	
-2.50899162E+000	-1.17882733E+002	
-2.48827832E+000	-1.17872625E+002	
-2.46756501E+000	-1.17877702E+002	
-2.44685171E+000	-1.17883116E+002	
-2.42613840E+000	-1.17913163E+002	
-2.40542510E+000	-1.17933006E+002	
-2.38471179E+000	-1.17918158E+002	
-2.36399849E+000	-1.17900936E+002	
-2.34328518E+000	-1.17854725E+002	
-2.32257187E+000	-1.17804483E+002	
-2.30185857E+000	-1.17730826E+002	
-2.28114526E+000	-1.17740432E+002	
-2.26043196E+000	-1.17800817E+002	
-2.23971865E+000	-1.17780102E+002	
-2.21900535E+000	-1.17829737E+002	
-2.19829204E+000	-1.17857789E+002	
-2.17757874E+000	-1.17815501E+002	
-2.15686543E+000	-1.17795597E+002	
-2.13615213E+000	-1.17837627E+002	
-2.11543882E+000	-1.17849327E+002	
-2.09472552E+000	-1.17873042E+002	
-2.07401221E+000	-1.17845046E+002	
-2.05329891E+000	-1.17796542E+002	
-2.03258560E+000	-1.17804138E+002	
-2.01187229E+000	-1.17805178E+002	
-1.99115899E+000	-1.17796603E+002	
-1.97044568E+000	-1.17736201E+002	
-1.94973238E+000	-1.17744815E+002	
-1.92901907E+000	-1.17713782E+002	
-1.90830577E+000	-1.17664206E+002	
-1.88759246E+000	-1.17658182E+002	
-1.86687916E+000	-1.17678266E+002	
-1.84616585E+000	-1.17640259E+002	
-1.82545255E+000	-1.17719228E+002	
-1.80473924E+000	-1.17718967E+002	
-1.78402594E+000	-1.17755123E+002	
-1.76331263E+000	-1.17765301E+002	
-1.74259933E+000	-1.17730105E+002	
-1.72188602E+000	-1.17724874E+002	
-1.70117272E+000	-1.17785216E+002	
-1.68045941E+000	-1.17800042E+002	
-1.65974610E+000	-1.17756605E+002	
-1.63903280E+000	-1.17728453E+002	
-1.61831949E+000	-1.17772859E+002	
-1.59760619E+000	-1.17780829E+002	
-1.57689288E+000	-1.17793455E+002	
-1.55617958E+000	-1.17854780E+002	
-1.53546627E+000	-1.17847419E+002	
-1.51475297E+000	-1.17839216E+002	
-1.49403966E+000	-1.17807601E+002	
-1.47332636E+000	-1.17840297E+002	
-1.45261305E+000	-1.17808388E+002	
-1.43189975E+000	-1.17808244E+002	
-1.41118644E+000	-1.17800786E+002	
-1.39047314E+000	-1.17817299E+002	
-1.36975983E+000	-1.17784422E+002	
-1.34904652E+000	-1.17794108E+002	
-1.32833322E+000	-1.17746765E+002	
-1.30761991E+000	-1.17716462E+002	
-1.28690661E+000	-1.17718416E+002	
-1.26619330E+000	-1.17703192E+002	
-1.24548000E+000	-1.17742053E+002	
-1.22476669E+000	-1.17778462E+002	
-1.20405339E+000	-1.17675792E+002	
-1.18334008E+000	-1.17672793E+002	
-1.16262678E+000	-1.17743750E+002	
-1.14191347E+000	-1.17764470E+002	
-1.12120017E+000	-1.17755933E+002	
-1.10048686E+000	-1.17728074E+002	
-1.07977356E+000	-1.17729473E+002	
-1.05906025E+000	-1.17749610E+002	
-1.03834694E+000	-1.17721408E+002	
-1.01763364E+000	-1.17675840E+002	
-9.96920334E-001	-1.17624636E+002	
-9.76207029E-001	-1.17610757E+002	
-9.55493724E-001	-1.17631260E+002	
-9.34780418E-001	-1.17654653E+002	
-9.14067113E-001	-1.17713451E+002	
-8.93353808E-001	-1.17706642E+002	
-8.72640502E-001	-1.17693843E+002	
-8.51927197E-001	-1.17731366E+002	
-8.31213892E-001	-1.17764231E+002	
-8.10500586E-001	-1.17810785E+002	
-7.89787281E-001	-1.17824516E+002	
-7.69073976E-001	-1.17837018E+002	
-7.48360671E-001	-1.17818858E+002	
-7.27647365E-001	-1.17807625E+002	
-7.06934060E-001	-1.17851460E+002	
-6.86220755E-001	-1.17876392E+002	
-6.65507449E-001	-1.17901989E+002	
-6.44794144E-001	-1.17898593E+002	
-6.24080839E-001	-1.17867628E+002	
-6.03367533E-001	-1.17851752E+002	
-5.82654228E-001	-1.17826635E+002	
-5.61940923E-001	-1.17775950E+002	
-5.41227617E-001	-1.17737563E+002	
-5.20514312E-001	-1.17751020E+002	
-4.99801007E-001	-1.17830119E+002	
-4.79087701E-001	-1.17889659E+002	
-4.58374396E-001	-1.17904523E+002	
-4.37661091E-001	-1.17861817E+002	
-4.16947785E-001	-1.17817079E+002	
-3.96234480E-001	-1.17803402E+002	
-3.75521175E-001	-1.17807816E+002	
-3.54807869E-001	-1.17795725E+002	
-3.34094564E-001	-1.17796060E+002	
-3.13381259E-001	-1.17814852E+002	
-2.92667954E-001	-1.17777527E+002	
-2.71954648E-001	-1.17579200E+002	
-2.51241343E-001	-1.06242698E+002	
-2.30528038E-001	-1.05973465E+002	
-2.09814732E-001	-1.05968941E+002	
-1.89101427E-001	-1.05962805E+002	
-1.68388122E-001	-1.05955091E+002	
-1.47674816E-001	-1.05951641E+002	
-1.26961511E-001	-1.05950196E+002	
-1.06248206E-001	-1.05943085E+002	
-8.55349003E-002	-1.05941395E+002	
-6.48215950E-002	-1.05939971E+002	
-4.41082897E-002	-1.05941718E+002	
-2.33949844E-002	-1.05940102E+002	
-2.68167905E-003	-1.05938735E+002	
1.80316263E-002	-1.05931970E+002	
3.87449316E-002	-1.05928648E+002	
5.94582369E-002	-1.05929798E+002	
8.01715422E-002	-1.05932096E+002	
1.00884848E-001	-1.05931464E+002	
1.21598153E-001	-1.05925637E+002	
1.42311458E-001	-1.05923667E+002	
1.63024763E-001	-1.05922421E+002	
1.83738069E-001	-1.05918615E+002	
2.04451374E-001	-1.05915258E+002	
2.25164679E-001	-1.05926145E+002	
2.45877985E-001	-1.11547591E+002	
2.66591290E-001	-1.16950523E+002	
2.87304595E-001	-1.17006841E+002	
3.08017901E-001	-1.17062673E+002	
3.28731206E-001	-1.17112435E+002	
3.49444511E-001	-1.17123400E+002	
3.70157817E-001	-1.17171269E+002	
3.90871122E-001	-1.17248290E+002	
4.11584427E-001	-1.17226543E+002	
4.32297733E-001	-1.17211578E+002	
4.53011038E-001	-1.17205492E+002	
4.73724343E-001	-1.17215142E+002	
4.94437649E-001	-1.17204871E+002	
5.15150954E-001	-1.17247549E+002	
5.35864259E-001	-1.17259391E+002	
5.56577565E-001	-1.17294264E+002	
5.77290870E-001	-1.17243445E+002	
5.98004175E-001	-1.17214608E+002	
6.18717481E-001	-1.17266657E+002	
6.39430786E-001	-1.17274838E+002	
6.60144091E-001	-1.17259326E+002	
6.80857396E-001	-1.17296974E+002	
7.01570702E-001	-1.17322984E+002	
7.22284007E-001	-1.17334396E+002	
7.42997312E-001	-1.17310479E+002	
7.63710618E-001	-1.17306736E+002	
7.84423923E-001	-1.17271815E+002	
8.05137228E-001	-1.17251646E+002	
8.25850534E-001	-1.17228953E+002	
8.46563839E-001	-1.17197912E+002	
8.67277144E-001	-1.17174367E+002	
8.87990450E-001	-1.17164236E+002	
9.08703755E-001	-1.17255014E+002	
9.29417060E-001	-1.17303728E+002	
9.50130366E-001	-1.17331391E+002	
9.70843671E-001	-1.17288379E+002	
9.91556976E-001	-1.17278368E+002	
1.01227028E+000	-1.17302392E+002	
1.03298359E+000	-1.17294407E+002	
1.05369689E+000	-1.17264674E+002	
1.07441020E+000	-1.17279880E+002	
1.09512350E+000	-1.17294356E+002	
1.11583681E+000	-1.17354964E+002	
1.13655011E+000	-1.17357507E+002	
1.15726342E+000	-1.17352994E+002	
1.17797672E+000	-1.17327117E+002	
1.19869003E+000	-1.17371391E+002	
1.21940333E+000	-1.17342701E+002	
1.24011664E+000	-1.17351085E+002	
1.26082995E+000	-1.17345553E+002	
1.28154325E+000	-1.17356952E+002	
1.30225656E+000	-1.17358745E+002	
1.32296986E+000	-1.17351790E+002	
1.34368317E+000	-1.17379217E+002	
1.36439647E+000	-1.17441975E+002	
1.38510978E+000	-1.17448334E+002	
1.40582308E+000	-1.17382552E+002	
1.42653639E+000	-1.17388012E+002	
1.44724969E+000	-1.17373213E+002	
1.46796300E+000	-1.17385040E+002	
1.48867630E+000	-1.17414054E+002	
1.50938961E+000	-1.17401497E+002	
1.53010291E+000	-1.17398308E+002	
1.55081622E+000	-1.17382565E+002	
1.57152953E+000	-1.17382763E+002	
