Acquired on 5/10/2021 at 11:35:43
Calibrated on 5/10/2021 at 10:35:08
Device Descriptor:  [none]
Scan Range (nm):  1539.624  --  1560.517
Measurement Type:  Reflection
Group Index:  1.500
Gain:  24 dB
Domain:  Time
Spatial Resolution (mm):  50.000000
Frequency domain window was applied to measurement data.
Number of Data Points (in this file):  16384
NOTE: Data stored in this file is decimated by a factor of 64.

Time (ns)	Amplitude (dB)	
-1.00072081E+001	-1.20329205E+002	
-9.98649484E+000	-1.20001576E+002	
-9.96578154E+000	-1.19679735E+002	
-9.94506823E+000	-1.19421675E+002	
-9.92435493E+000	-1.19194812E+002	
-9.90364162E+000	-1.18961785E+002	
-9.88292832E+000	-1.18744217E+002	
-9.86221501E+000	-1.18526013E+002	
-9.84150171E+000	-1.18334479E+002	
-9.82078840E+000	-1.18156773E+002	
-9.80007509E+000	-1.17951681E+002	
-9.77936179E+000	-1.17764243E+002	
-9.75864848E+000	-1.17710962E+002	
-9.73793518E+000	-1.17746402E+002	
-9.71722187E+000	-1.17742536E+002	
-9.69650857E+000	-1.17752493E+002	
-9.67579526E+000	-1.17826496E+002	
-9.65508196E+000	-1.17811443E+002	
-9.63436865E+000	-1.17749851E+002	
-9.61365535E+000	-1.17742807E+002	
-9.59294204E+000	-1.17754701E+002	
-9.57222874E+000	-1.17793199E+002	
-9.55151543E+000	-1.17818886E+002	
-9.53080213E+000	-1.17798517E+002	
-9.51008882E+000	-1.17827200E+002	
-9.48937552E+000	-1.17846734E+002	
-9.46866221E+000	-1.17832336E+002	
-9.44794890E+000	-1.17804868E+002	
-9.42723560E+000	-1.17753167E+002	
-9.40652229E+000	-1.17736387E+002	
-9.38580899E+000	-1.17704606E+002	
-9.36509568E+000	-1.17698069E+002	
-9.34438238E+000	-1.17647063E+002	
-9.32366907E+000	-1.17612920E+002	
-9.30295577E+000	-1.17616111E+002	
-9.28224246E+000	-1.17621740E+002	
-9.26152916E+000	-1.17570882E+002	
-9.24081585E+000	-1.17499817E+002	
-9.22010255E+000	-1.17475099E+002	
-9.19938924E+000	-1.17509153E+002	
-9.17867594E+000	-1.17475167E+002	
-9.15796263E+000	-1.17460990E+002	
-9.13724932E+000	-1.17522017E+002	
-9.11653602E+000	-1.17537411E+002	
-9.09582271E+000	-1.17512455E+002	
-9.07510941E+000	-1.17505620E+002	
-9.05439610E+000	-1.17497475E+002	
-9.03368280E+000	-1.17379038E+002	
-9.01296949E+000	-1.17367617E+002	
-8.99225619E+000	-1.17367416E+002	
-8.97154288E+000	-1.17405150E+002	
-8.95082958E+000	-1.17420212E+002	
-8.93011627E+000	-1.17444857E+002	
-8.90940297E+000	-1.17469620E+002	
-8.88868966E+000	-1.17494687E+002	
-8.86797636E+000	-1.17483840E+002	
-8.84726305E+000	-1.17496133E+002	
-8.82654974E+000	-1.17479324E+002	
-8.80583644E+000	-1.17501577E+002	
-8.78512313E+000	-1.17493584E+002	
-8.76440983E+000	-1.17496288E+002	
-8.74369652E+000	-1.17556651E+002	
-8.72298322E+000	-1.17580045E+002	
-8.70226991E+000	-1.17512626E+002	
-8.68155661E+000	-1.17490860E+002	
-8.66084330E+000	-1.17521023E+002	
-8.64013000E+000	-1.17475030E+002	
-8.61941669E+000	-1.17422025E+002	
-8.59870339E+000	-1.17448088E+002	
-8.57799008E+000	-1.17449638E+002	
-8.55727678E+000	-1.17422686E+002	
-8.53656347E+000	-1.17542679E+002	
-8.51585017E+000	-1.17551463E+002	
-8.49513686E+000	-1.17553577E+002	
-8.47442355E+000	-1.17543184E+002	
-8.45371025E+000	-1.17556178E+002	
-8.43299694E+000	-1.17586840E+002	
-8.41228364E+000	-1.17556970E+002	
-8.39157033E+000	-1.17541571E+002	
-8.37085703E+000	-1.17581312E+002	
-8.35014372E+000	-1.17596393E+002	
-8.32943042E+000	-1.17623177E+002	
-8.30871711E+000	-1.17569612E+002	
-8.28800381E+000	-1.17601790E+002	
-8.26729050E+000	-1.17601832E+002	
-8.24657720E+000	-1.17594606E+002	
-8.22586389E+000	-1.17570926E+002	
-8.20515059E+000	-1.17622918E+002	
-8.18443728E+000	-1.17622354E+002	
-8.16372397E+000	-1.17607692E+002	
-8.14301067E+000	-1.17580864E+002	
-8.12229736E+000	-1.17604436E+002	
-8.10158406E+000	-1.17609863E+002	
-8.08087075E+000	-1.17609749E+002	
-8.06015745E+000	-1.17588615E+002	
-8.03944414E+000	-1.17538259E+002	
-8.01873084E+000	-1.17562081E+002	
-7.99801753E+000	-1.17558427E+002	
-7.97730423E+000	-1.17557518E+002	
-7.95659092E+000	-1.17531486E+002	
-7.93587762E+000	-1.17548248E+002	
-7.91516431E+000	-1.17588909E+002	
-7.89445101E+000	-1.17583573E+002	
-7.87373770E+000	-1.17564528E+002	
-7.85302439E+000	-1.17561102E+002	
-7.83231109E+000	-1.17548025E+002	
-7.81159778E+000	-1.17595434E+002	
-7.79088448E+000	-1.17621210E+002	
-7.77017117E+000	-1.17643580E+002	
-7.74945787E+000	-1.17661525E+002	
-7.72874456E+000	-1.17684826E+002	
-7.70803126E+000	-1.17647141E+002	
-7.68731795E+000	-1.17680465E+002	
-7.66660465E+000	-1.17672636E+002	
-7.64589134E+000	-1.17680724E+002	
-7.62517804E+000	-1.17679060E+002	
-7.60446473E+000	-1.17597324E+002	
-7.58375143E+000	-1.17610273E+002	
-7.56303812E+000	-1.17644355E+002	
-7.54232482E+000	-1.17707755E+002	
-7.52161151E+000	-1.17692785E+002	
-7.50089820E+000	-1.17701294E+002	
-7.48018490E+000	-1.17684465E+002	
-7.45947159E+000	-1.17732364E+002	
-7.43875829E+000	-1.17662898E+002	
-7.41804498E+000	-1.17579618E+002	
-7.39733168E+000	-1.17615560E+002	
-7.37661837E+000	-1.17621204E+002	
-7.35590507E+000	-1.17630988E+002	
-7.33519176E+000	-1.17653784E+002	
-7.31447846E+000	-1.17676524E+002	
-7.29376515E+000	-1.17659798E+002	
-7.27305185E+000	-1.17629671E+002	
-7.25233854E+000	-1.17655264E+002	
-7.23162524E+000	-1.17653626E+002	
-7.21091193E+000	-1.17645435E+002	
-7.19019862E+000	-1.17637935E+002	
-7.16948532E+000	-1.17681911E+002	
-7.14877201E+000	-1.17745620E+002	
-7.12805871E+000	-1.17787028E+002	
-7.10734540E+000	-1.17866104E+002	
-7.08663210E+000	-1.17907030E+002	
-7.06591879E+000	-1.17881388E+002	
-7.04520549E+000	-1.17870528E+002	
-7.02449218E+000	-1.17853189E+002	
-7.00377888E+000	-1.17826945E+002	
-6.98306557E+000	-1.17848510E+002	
-6.96235227E+000	-1.17812139E+002	
-6.94163896E+000	-1.17851113E+002	
-6.92092566E+000	-1.17914757E+002	
-6.90021235E+000	-1.17923590E+002	
-6.87949904E+000	-1.17898543E+002	
-6.85878574E+000	-1.17877031E+002	
-6.83807243E+000	-1.17893618E+002	
-6.81735913E+000	-1.17906526E+002	
-6.79664582E+000	-1.17860231E+002	
-6.77593252E+000	-1.17890195E+002	
-6.75521921E+000	-1.17834230E+002	
-6.73450591E+000	-1.17835239E+002	
-6.71379260E+000	-1.17814009E+002	
-6.69307930E+000	-1.17808787E+002	
-6.67236599E+000	-1.17769397E+002	
-6.65165269E+000	-1.17747525E+002	
-6.63093938E+000	-1.17754183E+002	
-6.61022608E+000	-1.17765058E+002	
-6.58951277E+000	-1.17759097E+002	
-6.56879947E+000	-1.17750841E+002	
-6.54808616E+000	-1.17720901E+002	
-6.52737285E+000	-1.17701192E+002	
-6.50665955E+000	-1.17727485E+002	
-6.48594624E+000	-1.17770092E+002	
-6.46523294E+000	-1.17799777E+002	
-6.44451963E+000	-1.17728533E+002	
-6.42380633E+000	-1.17685479E+002	
-6.40309302E+000	-1.17672769E+002	
-6.38237972E+000	-1.17648746E+002	
-6.36166641E+000	-1.17653257E+002	
-6.34095311E+000	-1.17659482E+002	
-6.32023980E+000	-1.17656299E+002	
-6.29952650E+000	-1.17677938E+002	
-6.27881319E+000	-1.17647663E+002	
-6.25809989E+000	-1.17670557E+002	
-6.23738658E+000	-1.17666637E+002	
-6.21667327E+000	-1.17656985E+002	
-6.19595997E+000	-1.17668268E+002	
-6.17524666E+000	-1.17653646E+002	
-6.15453336E+000	-1.17661159E+002	
-6.13382005E+000	-1.17646071E+002	
-6.11310675E+000	-1.17653991E+002	
-6.09239344E+000	-1.17652168E+002	
-6.07168014E+000	-1.17603702E+002	
-6.05096683E+000	-1.17672083E+002	
-6.03025353E+000	-1.17679512E+002	
-6.00954022E+000	-1.17653356E+002	
-5.98882692E+000	-1.17605777E+002	
-5.96811361E+000	-1.17614096E+002	
-5.94740031E+000	-1.17660564E+002	
-5.92668700E+000	-1.17704777E+002	
-5.90597369E+000	-1.17713556E+002	
-5.88526039E+000	-1.17761453E+002	
-5.86454708E+000	-1.17782289E+002	
-5.84383378E+000	-1.17747873E+002	
-5.82312047E+000	-1.17753376E+002	
-5.80240717E+000	-1.17717097E+002	
-5.78169386E+000	-1.17734662E+002	
-5.76098056E+000	-1.17742276E+002	
-5.74026725E+000	-1.17739453E+002	
-5.71955395E+000	-1.17763132E+002	
-5.69884064E+000	-1.17765478E+002	
-5.67812734E+000	-1.17793776E+002	
-5.65741403E+000	-1.17786979E+002	
-5.63670073E+000	-1.17796595E+002	
-5.61598742E+000	-1.17776256E+002	
-5.59527412E+000	-1.17738023E+002	
-5.57456081E+000	-1.17800830E+002	
-5.55384750E+000	-1.17731392E+002	
-5.53313420E+000	-1.17666692E+002	
-5.51242089E+000	-1.17686345E+002	
-5.49170759E+000	-1.17696403E+002	
-5.47099428E+000	-1.17676358E+002	
-5.45028098E+000	-1.17723796E+002	
-5.42956767E+000	-1.17763546E+002	
-5.40885437E+000	-1.17749793E+002	
-5.38814106E+000	-1.17742707E+002	
-5.36742776E+000	-1.17720524E+002	
-5.34671445E+000	-1.17755042E+002	
-5.32600115E+000	-1.17765370E+002	
-5.30528784E+000	-1.17787405E+002	
-5.28457454E+000	-1.17764112E+002	
-5.26386123E+000	-1.17737280E+002	
-5.24314792E+000	-1.17673613E+002	
-5.22243462E+000	-1.17658152E+002	
-5.20172131E+000	-1.17657452E+002	
-5.18100801E+000	-1.17624040E+002	
-5.16029470E+000	-1.17623807E+002	
-5.13958140E+000	-1.17577510E+002	
-5.11886809E+000	-1.17549418E+002	
-5.09815479E+000	-1.17552437E+002	
-5.07744148E+000	-1.17520286E+002	
-5.05672818E+000	-1.17587454E+002	
-5.03601487E+000	-1.17614676E+002	
-5.01530157E+000	-1.17654958E+002	
-4.99458826E+000	-1.17655893E+002	
-4.97387496E+000	-1.17606913E+002	
-4.95316165E+000	-1.17603909E+002	
-4.93244834E+000	-1.17566128E+002	
-4.91173504E+000	-1.17549100E+002	
-4.89102173E+000	-1.17536542E+002	
-4.87030843E+000	-1.17557539E+002	
-4.84959512E+000	-1.17536646E+002	
-4.82888182E+000	-1.17492268E+002	
-4.80816851E+000	-1.17475203E+002	
-4.78745521E+000	-1.17483738E+002	
-4.76674190E+000	-1.17509574E+002	
-4.74602860E+000	-1.17526402E+002	
-4.72531529E+000	-1.17576211E+002	
-4.70460199E+000	-1.17569092E+002	
-4.68388868E+000	-1.17604924E+002	
-4.66317538E+000	-1.17586833E+002	
-4.64246207E+000	-1.17630348E+002	
-4.62174877E+000	-1.17678799E+002	
-4.60103546E+000	-1.17709600E+002	
-4.58032215E+000	-1.17728934E+002	
-4.55960885E+000	-1.17697762E+002	
-4.53889554E+000	-1.17730394E+002	
-4.51818224E+000	-1.17659902E+002	
-4.49746893E+000	-1.17614509E+002	
-4.47675563E+000	-1.17655763E+002	
-4.45604232E+000	-1.17639766E+002	
-4.43532902E+000	-1.17639924E+002	
-4.41461571E+000	-1.17637667E+002	
-4.39390241E+000	-1.17648444E+002	
-4.37318910E+000	-1.17656235E+002	
-4.35247580E+000	-1.17646095E+002	
-4.33176249E+000	-1.17640534E+002	
-4.31104919E+000	-1.17635505E+002	
-4.29033588E+000	-1.17629914E+002	
-4.26962257E+000	-1.17623741E+002	
-4.24890927E+000	-1.17670443E+002	
-4.22819596E+000	-1.17676406E+002	
-4.20748266E+000	-1.17704220E+002	
-4.18676935E+000	-1.17671166E+002	
-4.16605605E+000	-1.17679825E+002	
-4.14534274E+000	-1.17691334E+002	
-4.12462944E+000	-1.17643804E+002	
-4.10391613E+000	-1.17633054E+002	
-4.08320283E+000	-1.17625898E+002	
-4.06248952E+000	-1.17616999E+002	
-4.04177622E+000	-1.17573936E+002	
-4.02106291E+000	-1.17602237E+002	
-4.00034961E+000	-1.17607036E+002	
-3.97963630E+000	-1.17570673E+002	
-3.95892299E+000	-1.17579090E+002	
-3.93820969E+000	-1.17551952E+002	
-3.91749638E+000	-1.17566171E+002	
-3.89678308E+000	-1.17537738E+002	
-3.87606977E+000	-1.17481219E+002	
-3.85535647E+000	-1.17482497E+002	
-3.83464316E+000	-1.17471514E+002	
-3.81392986E+000	-1.17471838E+002	
-3.79321655E+000	-1.17498847E+002	
-3.77250325E+000	-1.17450881E+002	
-3.75178994E+000	-1.17464877E+002	
-3.73107664E+000	-1.17468583E+002	
-3.71036333E+000	-1.17412908E+002	
-3.68965003E+000	-1.17427615E+002	
-3.66893672E+000	-1.17478568E+002	
-3.64822342E+000	-1.17445118E+002	
-3.62751011E+000	-1.17469678E+002	
-3.60679680E+000	-1.17476169E+002	
-3.58608350E+000	-1.17478570E+002	
-3.56537019E+000	-1.17503572E+002	
-3.54465689E+000	-1.17505397E+002	
-3.52394358E+000	-1.17529942E+002	
-3.50323028E+000	-1.17572767E+002	
-3.48251697E+000	-1.17608206E+002	
-3.46180367E+000	-1.17645439E+002	
-3.44109036E+000	-1.17665349E+002	
-3.42037706E+000	-1.17690647E+002	
-3.39966375E+000	-1.17736364E+002	
-3.37895045E+000	-1.17786073E+002	
-3.35823714E+000	-1.17785680E+002	
-3.33752384E+000	-1.17789659E+002	
-3.31681053E+000	-1.17789835E+002	
-3.29609722E+000	-1.17766802E+002	
-3.27538392E+000	-1.17789888E+002	
-3.25467061E+000	-1.17806068E+002	
-3.23395731E+000	-1.17802597E+002	
-3.21324400E+000	-1.17836015E+002	
-3.19253070E+000	-1.17840728E+002	
-3.17181739E+000	-1.17803227E+002	
-3.15110409E+000	-1.17781117E+002	
-3.13039078E+000	-1.17771929E+002	
-3.10967748E+000	-1.17811787E+002	
-3.08896417E+000	-1.17786150E+002	
-3.06825087E+000	-1.17767330E+002	
-3.04753756E+000	-1.17799018E+002	
-3.02682426E+000	-1.17773984E+002	
-3.00611095E+000	-1.17696503E+002	
-2.98539764E+000	-1.17743135E+002	
-2.96468434E+000	-1.17706864E+002	
-2.94397103E+000	-1.17678202E+002	
-2.92325773E+000	-1.17637418E+002	
-2.90254442E+000	-1.17624537E+002	
-2.88183112E+000	-1.17635919E+002	
-2.86111781E+000	-1.17672481E+002	
-2.84040451E+000	-1.17714397E+002	
-2.81969120E+000	-1.17746473E+002	
-2.79897790E+000	-1.17811778E+002	
-2.77826459E+000	-1.17781325E+002	
-2.75755129E+000	-1.17750444E+002	
-2.73683798E+000	-1.17761905E+002	
-2.71612468E+000	-1.17710673E+002	
-2.69541137E+000	-1.17702342E+002	
-2.67469807E+000	-1.17769683E+002	
-2.65398476E+000	-1.17801406E+002	
-2.63327145E+000	-1.17796041E+002	
-2.61255815E+000	-1.17739419E+002	
-2.59184484E+000	-1.17751081E+002	
-2.57113154E+000	-1.17748911E+002	
-2.55041823E+000	-1.17740715E+002	
-2.52970493E+000	-1.17795573E+002	
-2.50899162E+000	-1.17871695E+002	
-2.48827832E+000	-1.17857499E+002	
-2.46756501E+000	-1.17866087E+002	
-2.44685171E+000	-1.17865031E+002	
-2.42613840E+000	-1.17894555E+002	
-2.40542510E+000	-1.17917655E+002	
-2.38471179E+000	-1.17908487E+002	
-2.36399849E+000	-1.17895044E+002	
-2.34328518E+000	-1.17843481E+002	
-2.32257187E+000	-1.17802962E+002	
-2.30185857E+000	-1.17738038E+002	
-2.28114526E+000	-1.17743466E+002	
-2.26043196E+000	-1.17815259E+002	
-2.23971865E+000	-1.17790446E+002	
-2.21900535E+000	-1.17836855E+002	
-2.19829204E+000	-1.17860599E+002	
-2.17757874E+000	-1.17823305E+002	
-2.15686543E+000	-1.17799963E+002	
-2.13615213E+000	-1.17845154E+002	
-2.11543882E+000	-1.17859943E+002	
-2.09472552E+000	-1.17878704E+002	
-2.07401221E+000	-1.17857854E+002	
-2.05329891E+000	-1.17812671E+002	
-2.03258560E+000	-1.17825782E+002	
-2.01187229E+000	-1.17823475E+002	
-1.99115899E+000	-1.17818581E+002	
-1.97044568E+000	-1.17753036E+002	
-1.94973238E+000	-1.17767525E+002	
-1.92901907E+000	-1.17746447E+002	
-1.90830577E+000	-1.17696183E+002	
-1.88759246E+000	-1.17686849E+002	
-1.86687916E+000	-1.17701825E+002	
-1.84616585E+000	-1.17671353E+002	
-1.82545255E+000	-1.17751270E+002	
-1.80473924E+000	-1.17755996E+002	
-1.78402594E+000	-1.17788819E+002	
-1.76331263E+000	-1.17791641E+002	
-1.74259933E+000	-1.17762921E+002	
-1.72188602E+000	-1.17756655E+002	
-1.70117272E+000	-1.17813898E+002	
-1.68045941E+000	-1.17824608E+002	
-1.65974610E+000	-1.17778577E+002	
-1.63903280E+000	-1.17746405E+002	
-1.61831949E+000	-1.17792423E+002	
-1.59760619E+000	-1.17792952E+002	
-1.57689288E+000	-1.17805497E+002	
-1.55617958E+000	-1.17868136E+002	
-1.53546627E+000	-1.17857043E+002	
-1.51475297E+000	-1.17852440E+002	
-1.49403966E+000	-1.17820881E+002	
-1.47332636E+000	-1.17853037E+002	
-1.45261305E+000	-1.17823361E+002	
-1.43189975E+000	-1.17826826E+002	
-1.41118644E+000	-1.17808210E+002	
-1.39047314E+000	-1.17821182E+002	
-1.36975983E+000	-1.17795744E+002	
-1.34904652E+000	-1.17799551E+002	
-1.32833322E+000	-1.17750184E+002	
-1.30761991E+000	-1.17714181E+002	
-1.28690661E+000	-1.17717366E+002	
-1.26619330E+000	-1.17700747E+002	
-1.24548000E+000	-1.17735379E+002	
-1.22476669E+000	-1.17775052E+002	
-1.20405339E+000	-1.17680975E+002	
-1.18334008E+000	-1.17678804E+002	
-1.16262678E+000	-1.17751457E+002	
-1.14191347E+000	-1.17771738E+002	
-1.12120017E+000	-1.17759330E+002	
-1.10048686E+000	-1.17739075E+002	
-1.07977356E+000	-1.17743372E+002	
-1.05906025E+000	-1.17763508E+002	
-1.03834694E+000	-1.17738306E+002	
-1.01763364E+000	-1.17689937E+002	
-9.96920334E-001	-1.17645947E+002	
-9.76207029E-001	-1.17628502E+002	
-9.55493724E-001	-1.17642424E+002	
-9.34780418E-001	-1.17661886E+002	
-9.14067113E-001	-1.17725029E+002	
-8.93353808E-001	-1.17727046E+002	
-8.72640502E-001	-1.17706806E+002	
-8.51927197E-001	-1.17745659E+002	
-8.31213892E-001	-1.17776049E+002	
-8.10500586E-001	-1.17817687E+002	
-7.89787281E-001	-1.17832578E+002	
-7.69073976E-001	-1.17845717E+002	
-7.48360671E-001	-1.17821391E+002	
-7.27647365E-001	-1.17811035E+002	
-7.06934060E-001	-1.17849508E+002	
-6.86220755E-001	-1.17874058E+002	
-6.65507449E-001	-1.17901520E+002	
-6.44794144E-001	-1.17901705E+002	
-6.24080839E-001	-1.17874654E+002	
-6.03367533E-001	-1.17864707E+002	
-5.82654228E-001	-1.17843105E+002	
-5.61940923E-001	-1.17793719E+002	
-5.41227617E-001	-1.17755041E+002	
-5.20514312E-001	-1.17767639E+002	
-4.99801007E-001	-1.17835887E+002	
-4.79087701E-001	-1.17902756E+002	
-4.58374396E-001	-1.17922991E+002	
-4.37661091E-001	-1.17883666E+002	
-4.16947785E-001	-1.17835028E+002	
-3.96234480E-001	-1.17820812E+002	
-3.75521175E-001	-1.17832922E+002	
-3.54807869E-001	-1.17830857E+002	
-3.34094564E-001	-1.17834329E+002	
-3.13381259E-001	-1.17866345E+002	
-2.92667954E-001	-1.17864649E+002	
-2.71954648E-001	-1.17825920E+002	
-2.51241343E-001	-1.05602835E+002	
-2.30528038E-001	-1.05236334E+002	
-2.09814732E-001	-1.05234926E+002	
-1.89101427E-001	-1.05229663E+002	
-1.68388122E-001	-1.05222601E+002	
-1.47674816E-001	-1.05219830E+002	
-1.26961511E-001	-1.05219101E+002	
-1.06248206E-001	-1.05212890E+002	
-8.55349003E-002	-1.05210645E+002	
-6.48215950E-002	-1.05209595E+002	
-4.41082897E-002	-1.05211205E+002	
-2.33949844E-002	-1.05209841E+002	
-2.68167905E-003	-1.05209176E+002	
1.80316263E-002	-1.05203451E+002	
3.87449316E-002	-1.05200620E+002	
5.94582369E-002	-1.05201336E+002	
8.01715422E-002	-1.05203339E+002	
1.00884848E-001	-1.05202946E+002	
1.21598153E-001	-1.05197919E+002	
1.42311458E-001	-1.05195755E+002	
1.63024763E-001	-1.05195143E+002	
1.83738069E-001	-1.05191787E+002	
2.04451374E-001	-1.05187134E+002	
2.25164679E-001	-1.05188385E+002	
2.45877985E-001	-1.10660130E+002	
2.66591290E-001	-1.17035043E+002	
2.87304595E-001	-1.17040758E+002	
3.08017901E-001	-1.17097723E+002	
3.28731206E-001	-1.17153031E+002	
3.49444511E-001	-1.17165921E+002	
3.70157817E-001	-1.17198986E+002	
3.90871122E-001	-1.17273047E+002	
4.11584427E-001	-1.17253991E+002	
4.32297733E-001	-1.17238423E+002	
4.53011038E-001	-1.17227605E+002	
4.73724343E-001	-1.17240898E+002	
4.94437649E-001	-1.17229374E+002	
5.15150954E-001	-1.17270792E+002	
5.35864259E-001	-1.17282170E+002	
5.56577565E-001	-1.17316744E+002	
5.77290870E-001	-1.17263797E+002	
5.98004175E-001	-1.17234983E+002	
6.18717481E-001	-1.17279335E+002	
6.39430786E-001	-1.17293271E+002	
6.60144091E-001	-1.17270410E+002	
6.80857396E-001	-1.17299778E+002	
7.01570702E-001	-1.17328011E+002	
7.22284007E-001	-1.17331797E+002	
7.42997312E-001	-1.17308298E+002	
7.63710618E-001	-1.17308581E+002	
7.84423923E-001	-1.17281446E+002	
8.05137228E-001	-1.17261277E+002	
8.25850534E-001	-1.17243375E+002	
8.46563839E-001	-1.17216990E+002	
8.67277144E-001	-1.17197241E+002	
8.87990450E-001	-1.17185314E+002	
9.08703755E-001	-1.17281974E+002	
9.29417060E-001	-1.17335647E+002	
9.50130366E-001	-1.17364946E+002	
9.70843671E-001	-1.17322439E+002	
9.91556976E-001	-1.17315242E+002	
1.01227028E+000	-1.17341223E+002	
1.03298359E+000	-1.17334732E+002	
1.05369689E+000	-1.17301833E+002	
1.07441020E+000	-1.17317652E+002	
1.09512350E+000	-1.17331281E+002	
1.11583681E+000	-1.17392914E+002	
1.13655011E+000	-1.17394705E+002	
1.15726342E+000	-1.17390988E+002	
1.17797672E+000	-1.17362487E+002	
1.19869003E+000	-1.17405438E+002	
1.21940333E+000	-1.17380967E+002	
1.24011664E+000	-1.17389965E+002	
1.26082995E+000	-1.17381750E+002	
1.28154325E+000	-1.17387293E+002	
1.30225656E+000	-1.17390863E+002	
1.32296986E+000	-1.17381875E+002	
1.34368317E+000	-1.17405017E+002	
1.36439647E+000	-1.17469810E+002	
1.38510978E+000	-1.17478358E+002	
1.40582308E+000	-1.17413171E+002	
1.42653639E+000	-1.17412678E+002	
1.44724969E+000	-1.17396395E+002	
1.46796300E+000	-1.17404820E+002	
1.48867630E+000	-1.17433482E+002	
1.50938961E+000	-1.17418564E+002	
1.53010291E+000	-1.17414878E+002	
1.55081622E+000	-1.17403046E+002	
1.57152953E+000	-1.17406651E+002	
