Acquired on 5/10/2021 at 12:09:25
Calibrated on 5/10/2021 at 10:35:08
Device Descriptor:  [none]
Scan Range (nm):  1539.624  --  1560.517
Measurement Type:  Reflection
Group Index:  1.500
Gain:  24 dB
Domain:  Time
Spatial Resolution (mm):  50.000000
Frequency domain window was applied to measurement data.
Number of Data Points (in this file):  16384
NOTE: Data stored in this file is decimated by a factor of 64.

Time (ns)	Amplitude (dB)	
-1.00072081E+001	-1.20307552E+002	
-9.98649484E+000	-1.19974069E+002	
-9.96578154E+000	-1.19646354E+002	
-9.94506823E+000	-1.19389704E+002	
-9.92435493E+000	-1.19160088E+002	
-9.90364162E+000	-1.18926658E+002	
-9.88292832E+000	-1.18713550E+002	
-9.86221501E+000	-1.18492857E+002	
-9.84150171E+000	-1.18301345E+002	
-9.82078840E+000	-1.18125254E+002	
-9.80007509E+000	-1.17920280E+002	
-9.77936179E+000	-1.17731366E+002	
-9.75864848E+000	-1.17677132E+002	
-9.73793518E+000	-1.17705170E+002	
-9.71722187E+000	-1.17702755E+002	
-9.69650857E+000	-1.17714416E+002	
-9.67579526E+000	-1.17782745E+002	
-9.65508196E+000	-1.17764371E+002	
-9.63436865E+000	-1.17715773E+002	
-9.61365535E+000	-1.17717438E+002	
-9.59294204E+000	-1.17726652E+002	
-9.57222874E+000	-1.17762104E+002	
-9.55151543E+000	-1.17790608E+002	
-9.53080213E+000	-1.17771899E+002	
-9.51008882E+000	-1.17803356E+002	
-9.48937552E+000	-1.17826728E+002	
-9.46866221E+000	-1.17815148E+002	
-9.44794890E+000	-1.17785695E+002	
-9.42723560E+000	-1.17736823E+002	
-9.40652229E+000	-1.17721425E+002	
-9.38580899E+000	-1.17690589E+002	
-9.36509568E+000	-1.17686181E+002	
-9.34438238E+000	-1.17639514E+002	
-9.32366907E+000	-1.17607674E+002	
-9.30295577E+000	-1.17616794E+002	
-9.28224246E+000	-1.17625664E+002	
-9.26152916E+000	-1.17578398E+002	
-9.24081585E+000	-1.17516050E+002	
-9.22010255E+000	-1.17492036E+002	
-9.19938924E+000	-1.17523369E+002	
-9.17867594E+000	-1.17495070E+002	
-9.15796263E+000	-1.17485380E+002	
-9.13724932E+000	-1.17544497E+002	
-9.11653602E+000	-1.17550423E+002	
-9.09582271E+000	-1.17528472E+002	
-9.07510941E+000	-1.17521367E+002	
-9.05439610E+000	-1.17513751E+002	
-9.03368280E+000	-1.17397162E+002	
-9.01296949E+000	-1.17383643E+002	
-8.99225619E+000	-1.17389159E+002	
-8.97154288E+000	-1.17432473E+002	
-8.95082958E+000	-1.17444750E+002	
-8.93011627E+000	-1.17466936E+002	
-8.90940297E+000	-1.17491274E+002	
-8.88868966E+000	-1.17515700E+002	
-8.86797636E+000	-1.17503334E+002	
-8.84726305E+000	-1.17512018E+002	
-8.82654974E+000	-1.17493809E+002	
-8.80583644E+000	-1.17510280E+002	
-8.78512313E+000	-1.17506535E+002	
-8.76440983E+000	-1.17508513E+002	
-8.74369652E+000	-1.17566775E+002	
-8.72298322E+000	-1.17592162E+002	
-8.70226991E+000	-1.17529589E+002	
-8.68155661E+000	-1.17509663E+002	
-8.66084330E+000	-1.17538597E+002	
-8.64013000E+000	-1.17492386E+002	
-8.61941669E+000	-1.17445908E+002	
-8.59870339E+000	-1.17468305E+002	
-8.57799008E+000	-1.17467304E+002	
-8.55727678E+000	-1.17439862E+002	
-8.53656347E+000	-1.17559943E+002	
-8.51585017E+000	-1.17570385E+002	
-8.49513686E+000	-1.17562761E+002	
-8.47442355E+000	-1.17550884E+002	
-8.45371025E+000	-1.17571903E+002	
-8.43299694E+000	-1.17601071E+002	
-8.41228364E+000	-1.17570770E+002	
-8.39157033E+000	-1.17559776E+002	
-8.37085703E+000	-1.17601812E+002	
-8.35014372E+000	-1.17615924E+002	
-8.32943042E+000	-1.17644814E+002	
-8.30871711E+000	-1.17592664E+002	
-8.28800381E+000	-1.17618589E+002	
-8.26729050E+000	-1.17616759E+002	
-8.24657720E+000	-1.17610615E+002	
-8.22586389E+000	-1.17587363E+002	
-8.20515059E+000	-1.17637314E+002	
-8.18443728E+000	-1.17633041E+002	
-8.16372397E+000	-1.17620275E+002	
-8.14301067E+000	-1.17585200E+002	
-8.12229736E+000	-1.17597912E+002	
-8.10158406E+000	-1.17610142E+002	
-8.08087075E+000	-1.17610919E+002	
-8.06015745E+000	-1.17588713E+002	
-8.03944414E+000	-1.17535001E+002	
-8.01873084E+000	-1.17554385E+002	
-7.99801753E+000	-1.17555187E+002	
-7.97730423E+000	-1.17552562E+002	
-7.95659092E+000	-1.17523836E+002	
-7.93587762E+000	-1.17545612E+002	
-7.91516431E+000	-1.17588071E+002	
-7.89445101E+000	-1.17578721E+002	
-7.87373770E+000	-1.17556338E+002	
-7.85302439E+000	-1.17557415E+002	
-7.83231109E+000	-1.17538325E+002	
-7.81159778E+000	-1.17584967E+002	
-7.79088448E+000	-1.17610984E+002	
-7.77017117E+000	-1.17630393E+002	
-7.74945787E+000	-1.17645635E+002	
-7.72874456E+000	-1.17668011E+002	
-7.70803126E+000	-1.17631666E+002	
-7.68731795E+000	-1.17667798E+002	
-7.66660465E+000	-1.17665378E+002	
-7.64589134E+000	-1.17676362E+002	
-7.62517804E+000	-1.17682358E+002	
-7.60446473E+000	-1.17595626E+002	
-7.58375143E+000	-1.17612780E+002	
-7.56303812E+000	-1.17649620E+002	
-7.54232482E+000	-1.17714519E+002	
-7.52161151E+000	-1.17699340E+002	
-7.50089820E+000	-1.17708121E+002	
-7.48018490E+000	-1.17688385E+002	
-7.45947159E+000	-1.17738834E+002	
-7.43875829E+000	-1.17668458E+002	
-7.41804498E+000	-1.17586027E+002	
-7.39733168E+000	-1.17620311E+002	
-7.37661837E+000	-1.17623034E+002	
-7.35590507E+000	-1.17629885E+002	
-7.33519176E+000	-1.17653475E+002	
-7.31447846E+000	-1.17677353E+002	
-7.29376515E+000	-1.17661927E+002	
-7.27305185E+000	-1.17638108E+002	
-7.25233854E+000	-1.17662155E+002	
-7.23162524E+000	-1.17661547E+002	
-7.21091193E+000	-1.17649491E+002	
-7.19019862E+000	-1.17637630E+002	
-7.16948532E+000	-1.17675635E+002	
-7.14877201E+000	-1.17738023E+002	
-7.12805871E+000	-1.17780329E+002	
-7.10734540E+000	-1.17863326E+002	
-7.08663210E+000	-1.17905218E+002	
-7.06591879E+000	-1.17880491E+002	
-7.04520549E+000	-1.17870432E+002	
-7.02449218E+000	-1.17857562E+002	
-7.00377888E+000	-1.17830157E+002	
-6.98306557E+000	-1.17858271E+002	
-6.96235227E+000	-1.17822531E+002	
-6.94163896E+000	-1.17859993E+002	
-6.92092566E+000	-1.17924176E+002	
-6.90021235E+000	-1.17933190E+002	
-6.87949904E+000	-1.17912725E+002	
-6.85878574E+000	-1.17894055E+002	
-6.83807243E+000	-1.17918918E+002	
-6.81735913E+000	-1.17930042E+002	
-6.79664582E+000	-1.17882737E+002	
-6.77593252E+000	-1.17911347E+002	
-6.75521921E+000	-1.17861981E+002	
-6.73450591E+000	-1.17857823E+002	
-6.71379260E+000	-1.17837308E+002	
-6.69307930E+000	-1.17832147E+002	
-6.67236599E+000	-1.17789371E+002	
-6.65165269E+000	-1.17773481E+002	
-6.63093938E+000	-1.17781858E+002	
-6.61022608E+000	-1.17793622E+002	
-6.58951277E+000	-1.17782839E+002	
-6.56879947E+000	-1.17768042E+002	
-6.54808616E+000	-1.17733276E+002	
-6.52737285E+000	-1.17713972E+002	
-6.50665955E+000	-1.17743843E+002	
-6.48594624E+000	-1.17780785E+002	
-6.46523294E+000	-1.17811120E+002	
-6.44451963E+000	-1.17740387E+002	
-6.42380633E+000	-1.17688217E+002	
-6.40309302E+000	-1.17673547E+002	
-6.38237972E+000	-1.17656598E+002	
-6.36166641E+000	-1.17661785E+002	
-6.34095311E+000	-1.17662055E+002	
-6.32023980E+000	-1.17659723E+002	
-6.29952650E+000	-1.17675698E+002	
-6.27881319E+000	-1.17642336E+002	
-6.25809989E+000	-1.17657788E+002	
-6.23738658E+000	-1.17650809E+002	
-6.21667327E+000	-1.17639949E+002	
-6.19595997E+000	-1.17652606E+002	
-6.17524666E+000	-1.17640708E+002	
-6.15453336E+000	-1.17644776E+002	
-6.13382005E+000	-1.17628647E+002	
-6.11310675E+000	-1.17636712E+002	
-6.09239344E+000	-1.17630991E+002	
-6.07168014E+000	-1.17586109E+002	
-6.05096683E+000	-1.17662223E+002	
-6.03025353E+000	-1.17664825E+002	
-6.00954022E+000	-1.17636190E+002	
-5.98882692E+000	-1.17587564E+002	
-5.96811361E+000	-1.17596328E+002	
-5.94740031E+000	-1.17640885E+002	
-5.92668700E+000	-1.17687692E+002	
-5.90597369E+000	-1.17695536E+002	
-5.88526039E+000	-1.17729897E+002	
-5.86454708E+000	-1.17748467E+002	
-5.84383378E+000	-1.17714214E+002	
-5.82312047E+000	-1.17717379E+002	
-5.80240717E+000	-1.17683204E+002	
-5.78169386E+000	-1.17700682E+002	
-5.76098056E+000	-1.17705254E+002	
-5.74026725E+000	-1.17706089E+002	
-5.71955395E+000	-1.17730218E+002	
-5.69884064E+000	-1.17733389E+002	
-5.67812734E+000	-1.17760877E+002	
-5.65741403E+000	-1.17754808E+002	
-5.63670073E+000	-1.17760909E+002	
-5.61598742E+000	-1.17732537E+002	
-5.59527412E+000	-1.17691954E+002	
-5.57456081E+000	-1.17753738E+002	
-5.55384750E+000	-1.17675109E+002	
-5.53313420E+000	-1.17607009E+002	
-5.51242089E+000	-1.17630317E+002	
-5.49170759E+000	-1.17639684E+002	
-5.47099428E+000	-1.17617972E+002	
-5.45028098E+000	-1.17666771E+002	
-5.42956767E+000	-1.17714474E+002	
-5.40885437E+000	-1.17700450E+002	
-5.38814106E+000	-1.17695081E+002	
-5.36742776E+000	-1.17672737E+002	
-5.34671445E+000	-1.17705174E+002	
-5.32600115E+000	-1.17713772E+002	
-5.30528784E+000	-1.17734029E+002	
-5.28457454E+000	-1.17717194E+002	
-5.26386123E+000	-1.17694747E+002	
-5.24314792E+000	-1.17635668E+002	
-5.22243462E+000	-1.17622577E+002	
-5.20172131E+000	-1.17620770E+002	
-5.18100801E+000	-1.17581810E+002	
-5.16029470E+000	-1.17582564E+002	
-5.13958140E+000	-1.17540924E+002	
-5.11886809E+000	-1.17517822E+002	
-5.09815479E+000	-1.17533488E+002	
-5.07744148E+000	-1.17502723E+002	
-5.05672818E+000	-1.17575364E+002	
-5.03601487E+000	-1.17608819E+002	
-5.01530157E+000	-1.17645424E+002	
-4.99458826E+000	-1.17652256E+002	
-4.97387496E+000	-1.17596923E+002	
-4.95316165E+000	-1.17590646E+002	
-4.93244834E+000	-1.17545981E+002	
-4.91173504E+000	-1.17540530E+002	
-4.89102173E+000	-1.17534587E+002	
-4.87030843E+000	-1.17559305E+002	
-4.84959512E+000	-1.17542722E+002	
-4.82888182E+000	-1.17499832E+002	
-4.80816851E+000	-1.17490996E+002	
-4.78745521E+000	-1.17497572E+002	
-4.76674190E+000	-1.17524412E+002	
-4.74602860E+000	-1.17537890E+002	
-4.72531529E+000	-1.17586302E+002	
-4.70460199E+000	-1.17577779E+002	
-4.68388868E+000	-1.17623255E+002	
-4.66317538E+000	-1.17609189E+002	
-4.64246207E+000	-1.17653505E+002	
-4.62174877E+000	-1.17704313E+002	
-4.60103546E+000	-1.17730185E+002	
-4.58032215E+000	-1.17744791E+002	
-4.55960885E+000	-1.17709171E+002	
-4.53889554E+000	-1.17739006E+002	
-4.51818224E+000	-1.17667682E+002	
-4.49746893E+000	-1.17622508E+002	
-4.47675563E+000	-1.17672806E+002	
-4.45604232E+000	-1.17658402E+002	
-4.43532902E+000	-1.17658977E+002	
-4.41461571E+000	-1.17649294E+002	
-4.39390241E+000	-1.17654618E+002	
-4.37318910E+000	-1.17664247E+002	
-4.35247580E+000	-1.17651781E+002	
-4.33176249E+000	-1.17652400E+002	
-4.31104919E+000	-1.17650494E+002	
-4.29033588E+000	-1.17645386E+002	
-4.26962257E+000	-1.17638214E+002	
-4.24890927E+000	-1.17686267E+002	
-4.22819596E+000	-1.17691445E+002	
-4.20748266E+000	-1.17728218E+002	
-4.18676935E+000	-1.17692287E+002	
-4.16605605E+000	-1.17694958E+002	
-4.14534274E+000	-1.17705517E+002	
-4.12462944E+000	-1.17657324E+002	
-4.10391613E+000	-1.17651684E+002	
-4.08320283E+000	-1.17644035E+002	
-4.06248952E+000	-1.17634862E+002	
-4.04177622E+000	-1.17591962E+002	
-4.02106291E+000	-1.17624107E+002	
-4.00034961E+000	-1.17623517E+002	
-3.97963630E+000	-1.17578320E+002	
-3.95892299E+000	-1.17583296E+002	
-3.93820969E+000	-1.17553435E+002	
-3.91749638E+000	-1.17570484E+002	
-3.89678308E+000	-1.17545323E+002	
-3.87606977E+000	-1.17485687E+002	
-3.85535647E+000	-1.17487752E+002	
-3.83464316E+000	-1.17477308E+002	
-3.81392986E+000	-1.17473677E+002	
-3.79321655E+000	-1.17501252E+002	
-3.77250325E+000	-1.17457907E+002	
-3.75178994E+000	-1.17472993E+002	
-3.73107664E+000	-1.17478624E+002	
-3.71036333E+000	-1.17419861E+002	
-3.68965003E+000	-1.17431031E+002	
-3.66893672E+000	-1.17479414E+002	
-3.64822342E+000	-1.17445196E+002	
-3.62751011E+000	-1.17466297E+002	
-3.60679680E+000	-1.17469203E+002	
-3.58608350E+000	-1.17472305E+002	
-3.56537019E+000	-1.17497167E+002	
-3.54465689E+000	-1.17498804E+002	
-3.52394358E+000	-1.17521174E+002	
-3.50323028E+000	-1.17566507E+002	
-3.48251697E+000	-1.17609852E+002	
-3.46180367E+000	-1.17650695E+002	
-3.44109036E+000	-1.17670848E+002	
-3.42037706E+000	-1.17699678E+002	
-3.39966375E+000	-1.17744866E+002	
-3.37895045E+000	-1.17788443E+002	
-3.35823714E+000	-1.17781649E+002	
-3.33752384E+000	-1.17782967E+002	
-3.31681053E+000	-1.17781629E+002	
-3.29609722E+000	-1.17753441E+002	
-3.27538392E+000	-1.17765298E+002	
-3.25467061E+000	-1.17778821E+002	
-3.23395731E+000	-1.17771511E+002	
-3.21324400E+000	-1.17797222E+002	
-3.19253070E+000	-1.17804004E+002	
-3.17181739E+000	-1.17770688E+002	
-3.15110409E+000	-1.17753185E+002	
-3.13039078E+000	-1.17745710E+002	
-3.10967748E+000	-1.17781604E+002	
-3.08896417E+000	-1.17758847E+002	
-3.06825087E+000	-1.17743788E+002	
-3.04753756E+000	-1.17776929E+002	
-3.02682426E+000	-1.17752329E+002	
-3.00611095E+000	-1.17680724E+002	
-2.98539764E+000	-1.17724831E+002	
-2.96468434E+000	-1.17684677E+002	
-2.94397103E+000	-1.17665523E+002	
-2.92325773E+000	-1.17625944E+002	
-2.90254442E+000	-1.17615102E+002	
-2.88183112E+000	-1.17634034E+002	
-2.86111781E+000	-1.17678622E+002	
-2.84040451E+000	-1.17721493E+002	
-2.81969120E+000	-1.17753669E+002	
-2.79897790E+000	-1.17824989E+002	
-2.77826459E+000	-1.17799091E+002	
-2.75755129E+000	-1.17768526E+002	
-2.73683798E+000	-1.17783199E+002	
-2.71612468E+000	-1.17734688E+002	
-2.69541137E+000	-1.17726085E+002	
-2.67469807E+000	-1.17793559E+002	
-2.65398476E+000	-1.17822689E+002	
-2.63327145E+000	-1.17816896E+002	
-2.61255815E+000	-1.17767660E+002	
-2.59184484E+000	-1.17777393E+002	
-2.57113154E+000	-1.17777809E+002	
-2.55041823E+000	-1.17765608E+002	
-2.52970493E+000	-1.17821203E+002	
-2.50899162E+000	-1.17893774E+002	
-2.48827832E+000	-1.17875821E+002	
-2.46756501E+000	-1.17886604E+002	
-2.44685171E+000	-1.17884126E+002	
-2.42613840E+000	-1.17911884E+002	
-2.40542510E+000	-1.17928273E+002	
-2.38471179E+000	-1.17915584E+002	
-2.36399849E+000	-1.17899208E+002	
-2.34328518E+000	-1.17847646E+002	
-2.32257187E+000	-1.17805097E+002	
-2.30185857E+000	-1.17734914E+002	
-2.28114526E+000	-1.17741801E+002	
-2.26043196E+000	-1.17809736E+002	
-2.23971865E+000	-1.17785526E+002	
-2.21900535E+000	-1.17837931E+002	
-2.19829204E+000	-1.17862458E+002	
-2.17757874E+000	-1.17821154E+002	
-2.15686543E+000	-1.17801831E+002	
-2.13615213E+000	-1.17848275E+002	
-2.11543882E+000	-1.17851665E+002	
-2.09472552E+000	-1.17870699E+002	
-2.07401221E+000	-1.17848073E+002	
-2.05329891E+000	-1.17807331E+002	
-2.03258560E+000	-1.17822572E+002	
-2.01187229E+000	-1.17817603E+002	
-1.99115899E+000	-1.17815545E+002	
-1.97044568E+000	-1.17750116E+002	
-1.94973238E+000	-1.17762561E+002	
-1.92901907E+000	-1.17741449E+002	
-1.90830577E+000	-1.17695634E+002	
-1.88759246E+000	-1.17687065E+002	
-1.86687916E+000	-1.17700761E+002	
-1.84616585E+000	-1.17672578E+002	
-1.82545255E+000	-1.17749640E+002	
-1.80473924E+000	-1.17754748E+002	
-1.78402594E+000	-1.17791193E+002	
-1.76331263E+000	-1.17795790E+002	
-1.74259933E+000	-1.17761916E+002	
-1.72188602E+000	-1.17755510E+002	
-1.70117272E+000	-1.17813683E+002	
-1.68045941E+000	-1.17831939E+002	
-1.65974610E+000	-1.17785189E+002	
-1.63903280E+000	-1.17755578E+002	
-1.61831949E+000	-1.17807249E+002	
-1.59760619E+000	-1.17810786E+002	
-1.57689288E+000	-1.17824319E+002	
-1.55617958E+000	-1.17885197E+002	
-1.53546627E+000	-1.17872022E+002	
-1.51475297E+000	-1.17870411E+002	
-1.49403966E+000	-1.17837535E+002	
-1.47332636E+000	-1.17872130E+002	
-1.45261305E+000	-1.17841364E+002	
-1.43189975E+000	-1.17843118E+002	
-1.41118644E+000	-1.17828340E+002	
-1.39047314E+000	-1.17843257E+002	
-1.36975983E+000	-1.17815193E+002	
-1.34904652E+000	-1.17812607E+002	
-1.32833322E+000	-1.17761473E+002	
-1.30761991E+000	-1.17721611E+002	
-1.28690661E+000	-1.17721244E+002	
-1.26619330E+000	-1.17707293E+002	
-1.24548000E+000	-1.17745284E+002	
-1.22476669E+000	-1.17779492E+002	
-1.20405339E+000	-1.17681368E+002	
-1.18334008E+000	-1.17676938E+002	
-1.16262678E+000	-1.17745317E+002	
-1.14191347E+000	-1.17761746E+002	
-1.12120017E+000	-1.17750200E+002	
-1.10048686E+000	-1.17728185E+002	
-1.07977356E+000	-1.17731211E+002	
-1.05906025E+000	-1.17755974E+002	
-1.03834694E+000	-1.17730688E+002	
-1.01763364E+000	-1.17678850E+002	
-9.96920334E-001	-1.17636531E+002	
-9.76207029E-001	-1.17621524E+002	
-9.55493724E-001	-1.17636109E+002	
-9.34780418E-001	-1.17652698E+002	
-9.14067113E-001	-1.17712337E+002	
-8.93353808E-001	-1.17710609E+002	
-8.72640502E-001	-1.17698126E+002	
-8.51927197E-001	-1.17747241E+002	
-8.31213892E-001	-1.17783244E+002	
-8.10500586E-001	-1.17835321E+002	
-7.89787281E-001	-1.17852084E+002	
-7.69073976E-001	-1.17864191E+002	
-7.48360671E-001	-1.17844905E+002	
-7.27647365E-001	-1.17840256E+002	
-7.06934060E-001	-1.17883015E+002	
-6.86220755E-001	-1.17904186E+002	
-6.65507449E-001	-1.17932806E+002	
-6.44794144E-001	-1.17933530E+002	
-6.24080839E-001	-1.17903932E+002	
-6.03367533E-001	-1.17890621E+002	
-5.82654228E-001	-1.17865503E+002	
-5.61940923E-001	-1.17806565E+002	
-5.41227617E-001	-1.17767590E+002	
-5.20514312E-001	-1.17780601E+002	
-4.99801007E-001	-1.17849917E+002	
-4.79087701E-001	-1.17915101E+002	
-4.58374396E-001	-1.17938904E+002	
-4.37661091E-001	-1.17905449E+002	
-4.16947785E-001	-1.17856602E+002	
-3.96234480E-001	-1.17842731E+002	
-3.75521175E-001	-1.17852424E+002	
-3.54807869E-001	-1.17846897E+002	
-3.34094564E-001	-1.17848220E+002	
-3.13381259E-001	-1.17878336E+002	
-2.92667954E-001	-1.17873948E+002	
-2.71954648E-001	-1.17836076E+002	
-2.51241343E-001	-1.05931801E+002	
-2.30528038E-001	-1.05576848E+002	
-2.09814732E-001	-1.05574986E+002	
-1.89101427E-001	-1.05569624E+002	
-1.68388122E-001	-1.05562337E+002	
-1.47674816E-001	-1.05559439E+002	
-1.26961511E-001	-1.05558600E+002	
-1.06248206E-001	-1.05551913E+002	
-8.55349003E-002	-1.05549830E+002	
-6.48215950E-002	-1.05548975E+002	
-4.41082897E-002	-1.05550511E+002	
-2.33949844E-002	-1.05548743E+002	
-2.68167905E-003	-1.05547867E+002	
1.80316263E-002	-1.05541655E+002	
3.87449316E-002	-1.05538424E+002	
5.94582369E-002	-1.05538541E+002	
8.01715422E-002	-1.05540694E+002	
1.00884848E-001	-1.05540195E+002	
1.21598153E-001	-1.05534652E+002	
1.42311458E-001	-1.05532074E+002	
1.63024763E-001	-1.05531102E+002	
1.83738069E-001	-1.05527213E+002	
2.04451374E-001	-1.05522180E+002	
2.25164679E-001	-1.05523394E+002	
2.45877985E-001	-1.10961782E+002	
2.66591290E-001	-1.17017415E+002	
2.87304595E-001	-1.17024379E+002	
3.08017901E-001	-1.17078513E+002	
3.28731206E-001	-1.17128512E+002	
3.49444511E-001	-1.17139506E+002	
3.70157817E-001	-1.17176337E+002	
3.90871122E-001	-1.17253063E+002	
4.11584427E-001	-1.17232825E+002	
4.32297733E-001	-1.17217187E+002	
4.53011038E-001	-1.17212464E+002	
4.73724343E-001	-1.17234604E+002	
4.94437649E-001	-1.17227946E+002	
5.15150954E-001	-1.17268634E+002	
5.35864259E-001	-1.17279605E+002	
5.56577565E-001	-1.17321878E+002	
5.77290870E-001	-1.17273641E+002	
5.98004175E-001	-1.17245576E+002	
6.18717481E-001	-1.17295523E+002	
6.39430786E-001	-1.17308693E+002	
6.60144091E-001	-1.17291680E+002	
6.80857396E-001	-1.17329355E+002	
7.01570702E-001	-1.17355873E+002	
7.22284007E-001	-1.17360579E+002	
7.42997312E-001	-1.17338867E+002	
7.63710618E-001	-1.17340168E+002	
7.84423923E-001	-1.17314159E+002	
8.05137228E-001	-1.17289688E+002	
8.25850534E-001	-1.17271200E+002	
8.46563839E-001	-1.17242709E+002	
8.67277144E-001	-1.17217858E+002	
8.87990450E-001	-1.17203391E+002	
9.08703755E-001	-1.17296926E+002	
9.29417060E-001	-1.17352096E+002	
9.50130366E-001	-1.17379501E+002	
9.70843671E-001	-1.17338278E+002	
9.91556976E-001	-1.17326686E+002	
1.01227028E+000	-1.17351417E+002	
1.03298359E+000	-1.17344175E+002	
1.05369689E+000	-1.17309982E+002	
1.07441020E+000	-1.17325379E+002	
1.09512350E+000	-1.17339606E+002	
1.11583681E+000	-1.17394927E+002	
1.13655011E+000	-1.17401952E+002	
1.15726342E+000	-1.17402444E+002	
1.17797672E+000	-1.17370905E+002	
1.19869003E+000	-1.17415521E+002	
1.21940333E+000	-1.17391618E+002	
1.24011664E+000	-1.17399980E+002	
1.26082995E+000	-1.17390969E+002	
1.28154325E+000	-1.17392784E+002	
1.30225656E+000	-1.17402223E+002	
1.32296986E+000	-1.17396169E+002	
1.34368317E+000	-1.17423549E+002	
1.36439647E+000	-1.17490122E+002	
1.38510978E+000	-1.17497567E+002	
1.40582308E+000	-1.17431403E+002	
1.42653639E+000	-1.17430526E+002	
1.44724969E+000	-1.17414638E+002	
1.46796300E+000	-1.17417374E+002	
1.48867630E+000	-1.17445068E+002	
1.50938961E+000	-1.17430838E+002	
1.53010291E+000	-1.17426165E+002	
1.55081622E+000	-1.17417677E+002	
1.57152953E+000	-1.17415196E+002	
