Time (ns)	Amplitude (dB)	
-1.00072081E+001	-1.20745786E+002	
-9.98649484E+000	-1.20416059E+002	
-9.96578154E+000	-1.20062001E+002	
-9.94506823E+000	-1.19802315E+002	
-9.92435493E+000	-1.19571919E+002	
-9.90364162E+000	-1.19326982E+002	
-9.88292832E+000	-1.19111127E+002	
-9.86221501E+000	-1.18899237E+002	
-9.84150171E+000	-1.18699763E+002	
-9.82078840E+000	-1.18519139E+002	
-9.80007509E+000	-1.18319575E+002	
-9.77936179E+000	-1.18119577E+002	
-9.75864848E+000	-1.18062098E+002	
-9.73793518E+000	-1.18081735E+002	
-9.71722187E+000	-1.18081664E+002	
-9.69650857E+000	-1.18079875E+002	
-9.67579526E+000	-1.18134646E+002	
-9.65508196E+000	-1.18122824E+002	
-9.63436865E+000	-1.18074304E+002	
-9.61365535E+000	-1.18078349E+002	
-9.59294204E+000	-1.18099480E+002	
-9.57222874E+000	-1.18118704E+002	
-9.55151543E+000	-1.18136182E+002	
-9.53080213E+000	-1.18125111E+002	
-9.51008882E+000	-1.18155329E+002	
-9.48937552E+000	-1.18181651E+002	
-9.46866221E+000	-1.18176850E+002	
-9.44794890E+000	-1.18142110E+002	
-9.42723560E+000	-1.18094636E+002	
-9.40652229E+000	-1.18093901E+002	
-9.38580899E+000	-1.18069497E+002	
-9.36509568E+000	-1.18056641E+002	
-9.34438238E+000	-1.18018586E+002	
-9.32366907E+000	-1.17987749E+002	
-9.30295577E+000	-1.17982705E+002	
-9.28224246E+000	-1.18002033E+002	
-9.26152916E+000	-1.17956647E+002	
-9.24081585E+000	-1.17898117E+002	
-9.22010255E+000	-1.17884385E+002	
-9.19938924E+000	-1.17923632E+002	
-9.17867594E+000	-1.17913909E+002	
-9.15796263E+000	-1.17920530E+002	
-9.13724932E+000	-1.17975668E+002	
-9.11653602E+000	-1.17979106E+002	
-9.09582271E+000	-1.17932564E+002	
-9.07510941E+000	-1.17939357E+002	
-9.05439610E+000	-1.17947192E+002	
-9.03368280E+000	-1.17822080E+002	
-9.01296949E+000	-1.17805176E+002	
-8.99225619E+000	-1.17806850E+002	
-8.97154288E+000	-1.17858142E+002	
-8.95082958E+000	-1.17880940E+002	
-8.93011627E+000	-1.17908834E+002	
-8.90940297E+000	-1.17930478E+002	
-8.88868966E+000	-1.17953817E+002	
-8.86797636E+000	-1.17948815E+002	
-8.84726305E+000	-1.17972755E+002	
-8.82654974E+000	-1.17964882E+002	
-8.80583644E+000	-1.17979059E+002	
-8.78512313E+000	-1.17975366E+002	
-8.76440983E+000	-1.17987573E+002	
-8.74369652E+000	-1.18045059E+002	
-8.72298322E+000	-1.18064026E+002	
-8.70226991E+000	-1.17998384E+002	
-8.68155661E+000	-1.17959173E+002	
-8.66084330E+000	-1.17984247E+002	
-8.64013000E+000	-1.17952628E+002	
-8.61941669E+000	-1.17908978E+002	
-8.59870339E+000	-1.17953473E+002	
-8.57799008E+000	-1.17955737E+002	
-8.55727678E+000	-1.17916699E+002	
-8.53656347E+000	-1.18035547E+002	
-8.51585017E+000	-1.18063611E+002	
-8.49513686E+000	-1.18066744E+002	
-8.47442355E+000	-1.18053389E+002	
-8.45371025E+000	-1.18082578E+002	
-8.43299694E+000	-1.18123857E+002	
-8.41228364E+000	-1.18084591E+002	
-8.39157033E+000	-1.18061277E+002	
-8.37085703E+000	-1.18106739E+002	
-8.35014372E+000	-1.18119036E+002	
-8.32943042E+000	-1.18138333E+002	
-8.30871711E+000	-1.18094646E+002	
-8.28800381E+000	-1.18137995E+002	
-8.26729050E+000	-1.18119095E+002	
-8.24657720E+000	-1.18111665E+002	
-8.22586389E+000	-1.18089516E+002	
-8.20515059E+000	-1.18135362E+002	
-8.18443728E+000	-1.18134918E+002	
-8.16372397E+000	-1.18126622E+002	
-8.14301067E+000	-1.18077430E+002	
-8.12229736E+000	-1.18099199E+002	
-8.10158406E+000	-1.18095374E+002	
-8.08087075E+000	-1.18092786E+002	
-8.06015745E+000	-1.18074662E+002	
-8.03944414E+000	-1.18022745E+002	
-8.01873084E+000	-1.18028321E+002	
-7.99801753E+000	-1.18009431E+002	
-7.97730423E+000	-1.18004284E+002	
-7.95659092E+000	-1.17972729E+002	
-7.93587762E+000	-1.17978905E+002	
-7.91516431E+000	-1.18020629E+002	
-7.89445101E+000	-1.18011756E+002	
-7.87373770E+000	-1.17993690E+002	
-7.85302439E+000	-1.17989140E+002	
-7.83231109E+000	-1.17968499E+002	
-7.81159778E+000	-1.18023187E+002	
-7.79088448E+000	-1.18046243E+002	
-7.77017117E+000	-1.18069696E+002	
-7.74945787E+000	-1.18090266E+002	
-7.72874456E+000	-1.18104953E+002	
-7.70803126E+000	-1.18062700E+002	
-7.68731795E+000	-1.18092539E+002	
-7.66660465E+000	-1.18077292E+002	
-7.64589134E+000	-1.18071907E+002	
-7.62517804E+000	-1.18052321E+002	
-7.60446473E+000	-1.17984899E+002	
-7.58375143E+000	-1.17997932E+002	
-7.56303812E+000	-1.18023910E+002	
-7.54232482E+000	-1.18081411E+002	
-7.52161151E+000	-1.18077248E+002	
-7.50089820E+000	-1.18095686E+002	
-7.48018490E+000	-1.18067349E+002	
-7.45947159E+000	-1.18111367E+002	
-7.43875829E+000	-1.18046170E+002	
-7.41804498E+000	-1.17957703E+002	
-7.39733168E+000	-1.18013738E+002	
-7.37661837E+000	-1.18023765E+002	
-7.35590507E+000	-1.18026065E+002	
-7.33519176E+000	-1.18041831E+002	
-7.31447846E+000	-1.18056370E+002	
-7.29376515E+000	-1.18031149E+002	
-7.27305185E+000	-1.17999865E+002	
-7.25233854E+000	-1.18028839E+002	
-7.23162524E+000	-1.18040009E+002	
-7.21091193E+000	-1.18036522E+002	
-7.19019862E+000	-1.18036458E+002	
-7.16948532E+000	-1.18091114E+002	
-7.14877201E+000	-1.18171268E+002	
-7.12805871E+000	-1.18229214E+002	
-7.10734540E+000	-1.18298841E+002	
-7.08663210E+000	-1.18333538E+002	
-7.06591879E+000	-1.18313665E+002	
-7.04520549E+000	-1.18303255E+002	
-7.02449218E+000	-1.18277917E+002	
-7.00377888E+000	-1.18240401E+002	
-6.98306557E+000	-1.18278205E+002	
-6.96235227E+000	-1.18236900E+002	
-6.94163896E+000	-1.18261714E+002	
-6.92092566E+000	-1.18330833E+002	
-6.90021235E+000	-1.18315964E+002	
-6.87949904E+000	-1.18285165E+002	
-6.85878574E+000	-1.18270732E+002	
-6.83807243E+000	-1.18296046E+002	
-6.81735913E+000	-1.18311615E+002	
-6.79664582E+000	-1.18267019E+002	
-6.77593252E+000	-1.18305207E+002	
-6.75521921E+000	-1.18265131E+002	
-6.73450591E+000	-1.18256807E+002	
-6.71379260E+000	-1.18225983E+002	
-6.69307930E+000	-1.18227549E+002	
-6.67236599E+000	-1.18184401E+002	
-6.65165269E+000	-1.18157888E+002	
-6.63093938E+000	-1.18176205E+002	
-6.61022608E+000	-1.18202941E+002	
-6.58951277E+000	-1.18199969E+002	
-6.56879947E+000	-1.18194655E+002	
-6.54808616E+000	-1.18184737E+002	
-6.52737285E+000	-1.18163810E+002	
-6.50665955E+000	-1.18188240E+002	
-6.48594624E+000	-1.18229818E+002	
-6.46523294E+000	-1.18270864E+002	
-6.44451963E+000	-1.18205596E+002	
-6.42380633E+000	-1.18161659E+002	
-6.40309302E+000	-1.18164306E+002	
-6.38237972E+000	-1.18129072E+002	
-6.36166641E+000	-1.18130536E+002	
-6.34095311E+000	-1.18137557E+002	
-6.32023980E+000	-1.18132204E+002	
-6.29952650E+000	-1.18135175E+002	
-6.27881319E+000	-1.18109805E+002	
-6.25809989E+000	-1.18119214E+002	
-6.23738658E+000	-1.18105209E+002	
-6.21667327E+000	-1.18087297E+002	
-6.19595997E+000	-1.18100543E+002	
-6.17524666E+000	-1.18093185E+002	
-6.15453336E+000	-1.18094811E+002	
-6.13382005E+000	-1.18074078E+002	
-6.11310675E+000	-1.18078706E+002	
-6.09239344E+000	-1.18070652E+002	
-6.07168014E+000	-1.18016068E+002	
-6.05096683E+000	-1.18071533E+002	
-6.03025353E+000	-1.18090744E+002	
-6.00954022E+000	-1.18085545E+002	
-5.98882692E+000	-1.18038170E+002	
-5.96811361E+000	-1.18044215E+002	
-5.94740031E+000	-1.18087278E+002	
-5.92668700E+000	-1.18128948E+002	
-5.90597369E+000	-1.18144823E+002	
-5.88526039E+000	-1.18205486E+002	
-5.86454708E+000	-1.18230623E+002	
-5.84383378E+000	-1.18190362E+002	
-5.82312047E+000	-1.18214869E+002	
-5.80240717E+000	-1.18192746E+002	
-5.78169386E+000	-1.18211320E+002	
-5.76098056E+000	-1.18213256E+002	
-5.74026725E+000	-1.18213276E+002	
-5.71955395E+000	-1.18259861E+002	
-5.69884064E+000	-1.18254103E+002	
-5.67812734E+000	-1.18280088E+002	
-5.65741403E+000	-1.18278331E+002	
-5.63670073E+000	-1.18288203E+002	
-5.61598742E+000	-1.18264950E+002	
-5.59527412E+000	-1.18230391E+002	
-5.57456081E+000	-1.18294219E+002	
-5.55384750E+000	-1.18217863E+002	
-5.53313420E+000	-1.18144251E+002	
-5.51242089E+000	-1.18147309E+002	
-5.49170759E+000	-1.18148265E+002	
-5.47099428E+000	-1.18121577E+002	
-5.45028098E+000	-1.18184888E+002	
-5.42956767E+000	-1.18233396E+002	
-5.40885437E+000	-1.18213744E+002	
-5.38814106E+000	-1.18192040E+002	
-5.36742776E+000	-1.18163607E+002	
-5.34671445E+000	-1.18198236E+002	
-5.32600115E+000	-1.18183176E+002	
-5.30528784E+000	-1.18195097E+002	
-5.28457454E+000	-1.18170443E+002	
-5.26386123E+000	-1.18160307E+002	
-5.24314792E+000	-1.18101808E+002	
-5.22243462E+000	-1.18069020E+002	
-5.20172131E+000	-1.18081483E+002	
-5.18100801E+000	-1.18032097E+002	
-5.16029470E+000	-1.18021082E+002	
-5.13958140E+000	-1.17983216E+002	
-5.11886809E+000	-1.17962127E+002	
-5.09815479E+000	-1.17966134E+002	
-5.07744148E+000	-1.17936217E+002	
-5.05672818E+000	-1.17999210E+002	
-5.03601487E+000	-1.18013015E+002	
-5.01530157E+000	-1.18055007E+002	
-4.99458826E+000	-1.18058241E+002	
-4.97387496E+000	-1.18008719E+002	
-4.95316165E+000	-1.17998746E+002	
-4.93244834E+000	-1.17953416E+002	
-4.91173504E+000	-1.17942087E+002	
-4.89102173E+000	-1.17944593E+002	
-4.87030843E+000	-1.17987312E+002	
-4.84959512E+000	-1.17970336E+002	
-4.82888182E+000	-1.17934138E+002	
-4.80816851E+000	-1.17934581E+002	
-4.78745521E+000	-1.17950211E+002	
-4.76674190E+000	-1.17982083E+002	
-4.74602860E+000	-1.18006269E+002	
-4.72531529E+000	-1.18053875E+002	
-4.70460199E+000	-1.18038467E+002	
-4.68388868E+000	-1.18088506E+002	
-4.66317538E+000	-1.18089233E+002	
-4.64246207E+000	-1.18124316E+002	
-4.62174877E+000	-1.18159941E+002	
-4.60103546E+000	-1.18202629E+002	
-4.58032215E+000	-1.18228910E+002	
-4.55960885E+000	-1.18201224E+002	
-4.53889554E+000	-1.18231946E+002	
-4.51818224E+000	-1.18159806E+002	
-4.49746893E+000	-1.18114330E+002	
-4.47675563E+000	-1.18166437E+002	
-4.45604232E+000	-1.18154760E+002	
-4.43532902E+000	-1.18151541E+002	
-4.41461571E+000	-1.18139774E+002	
-4.39390241E+000	-1.18153854E+002	
-4.37318910E+000	-1.18157144E+002	
-4.35247580E+000	-1.18132292E+002	
-4.33176249E+000	-1.18123788E+002	
-4.31104919E+000	-1.18117930E+002	
-4.29033588E+000	-1.18114501E+002	
-4.26962257E+000	-1.18105255E+002	
-4.24890927E+000	-1.18148791E+002	
-4.22819596E+000	-1.18168457E+002	
-4.20748266E+000	-1.18210970E+002	
-4.18676935E+000	-1.18167378E+002	
-4.16605605E+000	-1.18171303E+002	
-4.14534274E+000	-1.18186563E+002	
-4.12462944E+000	-1.18150401E+002	
-4.10391613E+000	-1.18137888E+002	
-4.08320283E+000	-1.18123899E+002	
-4.06248952E+000	-1.18115196E+002	
-4.04177622E+000	-1.18087277E+002	
-4.02106291E+000	-1.18124612E+002	
-4.00034961E+000	-1.18135139E+002	
-3.97963630E+000	-1.18103220E+002	
-3.95892299E+000	-1.18116304E+002	
-3.93820969E+000	-1.18094935E+002	
-3.91749638E+000	-1.18115763E+002	
-3.89678308E+000	-1.18083584E+002	
-3.87606977E+000	-1.18011580E+002	
-3.85535647E+000	-1.18013941E+002	
-3.83464316E+000	-1.18016775E+002	
-3.81392986E+000	-1.18008651E+002	
-3.79321655E+000	-1.18033407E+002	
-3.77250325E+000	-1.17966392E+002	
-3.75178994E+000	-1.17968298E+002	
-3.73107664E+000	-1.17975140E+002	
-3.71036333E+000	-1.17913296E+002	
-3.68965003E+000	-1.17935764E+002	
-3.66893672E+000	-1.17976105E+002	
-3.64822342E+000	-1.17942353E+002	
-3.62751011E+000	-1.17955749E+002	
-3.60679680E+000	-1.17951529E+002	
-3.58608350E+000	-1.17954079E+002	
-3.56537019E+000	-1.17982898E+002	
-3.54465689E+000	-1.17988866E+002	
-3.52394358E+000	-1.18018486E+002	
-3.50323028E+000	-1.18058991E+002	
-3.48251697E+000	-1.18091257E+002	
-3.46180367E+000	-1.18113975E+002	
-3.44109036E+000	-1.18127790E+002	
-3.42037706E+000	-1.18157270E+002	
-3.39966375E+000	-1.18186580E+002	
-3.37895045E+000	-1.18235488E+002	
-3.35823714E+000	-1.18230051E+002	
-3.33752384E+000	-1.18237486E+002	
-3.31681053E+000	-1.18250645E+002	
-3.29609722E+000	-1.18219610E+002	
-3.27538392E+000	-1.18231812E+002	
-3.25467061E+000	-1.18232167E+002	
-3.23395731E+000	-1.18216197E+002	
-3.21324400E+000	-1.18238818E+002	
-3.19253070E+000	-1.18234690E+002	
-3.17181739E+000	-1.18213004E+002	
-3.15110409E+000	-1.18189145E+002	
-3.13039078E+000	-1.18178845E+002	
-3.10967748E+000	-1.18223589E+002	
-3.08896417E+000	-1.18207749E+002	
-3.06825087E+000	-1.18194283E+002	
-3.04753756E+000	-1.18206773E+002	
-3.02682426E+000	-1.18172615E+002	
-3.00611095E+000	-1.18097980E+002	
-2.98539764E+000	-1.18132303E+002	
-2.96468434E+000	-1.18093035E+002	
-2.94397103E+000	-1.18066148E+002	
-2.92325773E+000	-1.18027618E+002	
-2.90254442E+000	-1.18031198E+002	
-2.88183112E+000	-1.18042215E+002	
-2.86111781E+000	-1.18082132E+002	
-2.84040451E+000	-1.18117946E+002	
-2.81969120E+000	-1.18149753E+002	
-2.79897790E+000	-1.18218847E+002	
-2.77826459E+000	-1.18180596E+002	
-2.75755129E+000	-1.18157837E+002	
-2.73683798E+000	-1.18166429E+002	
-2.71612468E+000	-1.18111849E+002	
-2.69541137E+000	-1.18092869E+002	
-2.67469807E+000	-1.18149637E+002	
-2.65398476E+000	-1.18172380E+002	
-2.63327145E+000	-1.18168396E+002	
-2.61255815E+000	-1.18106369E+002	
-2.59184484E+000	-1.18104845E+002	
-2.57113154E+000	-1.18095791E+002	
-2.55041823E+000	-1.18095730E+002	
-2.52970493E+000	-1.18146316E+002	
-2.50899162E+000	-1.18213631E+002	
-2.48827832E+000	-1.18196744E+002	
-2.46756501E+000	-1.18201605E+002	
-2.44685171E+000	-1.18205074E+002	
-2.42613840E+000	-1.18228178E+002	
-2.40542510E+000	-1.18237141E+002	
-2.38471179E+000	-1.18216966E+002	
-2.36399849E+000	-1.18200887E+002	
-2.34328518E+000	-1.18150599E+002	
-2.32257187E+000	-1.18096645E+002	
-2.30185857E+000	-1.18024140E+002	
-2.28114526E+000	-1.18042337E+002	
-2.26043196E+000	-1.18119535E+002	
-2.23971865E+000	-1.18111710E+002	
-2.21900535E+000	-1.18173810E+002	
-2.19829204E+000	-1.18200090E+002	
-2.17757874E+000	-1.18159692E+002	
-2.15686543E+000	-1.18141595E+002	
-2.13615213E+000	-1.18191943E+002	
-2.11543882E+000	-1.18199486E+002	
-2.09472552E+000	-1.18212023E+002	
-2.07401221E+000	-1.18185183E+002	
-2.05329891E+000	-1.18139603E+002	
-2.03258560E+000	-1.18153049E+002	
-2.01187229E+000	-1.18153035E+002	
-1.99115899E+000	-1.18161449E+002	
-1.97044568E+000	-1.18090465E+002	
-1.94973238E+000	-1.18101313E+002	
-1.92901907E+000	-1.18085804E+002	
-1.90830577E+000	-1.18038925E+002	
-1.88759246E+000	-1.18032755E+002	
-1.86687916E+000	-1.18064204E+002	
-1.84616585E+000	-1.18031770E+002	
-1.82545255E+000	-1.18114453E+002	
-1.80473924E+000	-1.18125397E+002	
-1.78402594E+000	-1.18169019E+002	
-1.76331263E+000	-1.18170963E+002	
-1.74259933E+000	-1.18124309E+002	
-1.72188602E+000	-1.18125870E+002	
-1.70117272E+000	-1.18195654E+002	
-1.68045941E+000	-1.18223752E+002	
-1.65974610E+000	-1.18186056E+002	
-1.63903280E+000	-1.18149275E+002	
-1.61831949E+000	-1.18209101E+002	
-1.59760619E+000	-1.18223697E+002	
-1.57689288E+000	-1.18234927E+002	
-1.55617958E+000	-1.18290976E+002	
-1.53546627E+000	-1.18272420E+002	
-1.51475297E+000	-1.18272819E+002	
-1.49403966E+000	-1.18247346E+002	
-1.47332636E+000	-1.18301602E+002	
-1.45261305E+000	-1.18282741E+002	
-1.43189975E+000	-1.18281165E+002	
-1.41118644E+000	-1.18277519E+002	
-1.39047314E+000	-1.18308052E+002	
-1.36975983E+000	-1.18274405E+002	
-1.34904652E+000	-1.18279841E+002	
-1.32833322E+000	-1.18228967E+002	
-1.30761991E+000	-1.18177718E+002	
-1.28690661E+000	-1.18181098E+002	
-1.26619330E+000	-1.18166913E+002	
-1.24548000E+000	-1.18216758E+002	
-1.22476669E+000	-1.18235987E+002	
-1.20405339E+000	-1.18137840E+002	
-1.18334008E+000	-1.18129689E+002	
-1.16262678E+000	-1.18195008E+002	
-1.14191347E+000	-1.18222355E+002	
-1.12120017E+000	-1.18215125E+002	
-1.10048686E+000	-1.18190438E+002	
-1.07977356E+000	-1.18199788E+002	
-1.05906025E+000	-1.18239622E+002	
-1.03834694E+000	-1.18219221E+002	
-1.01763364E+000	-1.18149630E+002	
-9.96920334E-001	-1.18065105E+002	
-9.76207029E-001	-1.18021389E+002	
-9.55493724E-001	-1.18033417E+002	
-9.34780418E-001	-1.18050148E+002	
-9.14067113E-001	-1.18092457E+002	
-8.93353808E-001	-1.18073758E+002	
-8.72640502E-001	-1.18047161E+002	
-8.51927197E-001	-1.18076572E+002	
-8.31213892E-001	-1.18112023E+002	
-8.10500586E-001	-1.18174518E+002	
-7.89787281E-001	-1.18193126E+002	
-7.69073976E-001	-1.18203212E+002	
-7.48360671E-001	-1.18190975E+002	
-7.27647365E-001	-1.18183983E+002	
-7.06934060E-001	-1.18212348E+002	
-6.86220755E-001	-1.18234286E+002	
-6.65507449E-001	-1.18261682E+002	
-6.44794144E-001	-1.18260198E+002	
-6.24080839E-001	-1.18226305E+002	
-6.03367533E-001	-1.18224381E+002	
-5.82654228E-001	-1.18199401E+002	
-5.61940923E-001	-1.18148741E+002	
-5.41227617E-001	-1.18108621E+002	
-5.20514312E-001	-1.18146829E+002	
-4.99801007E-001	-1.18249141E+002	
-4.79087701E-001	-1.18333899E+002	
-4.58374396E-001	-1.18365732E+002	
-4.37661091E-001	-1.18324818E+002	
-4.16947785E-001	-1.18304086E+002	
-3.96234480E-001	-1.18312702E+002	
-3.75521175E-001	-1.18318290E+002	
-3.54807869E-001	-1.18328216E+002	
-3.34094564E-001	-1.18335788E+002	
-3.13381259E-001	-1.18352165E+002	
-2.92667954E-001	-1.18336798E+002	
-2.71954648E-001	-1.18307637E+002	
-2.51241343E-001	-1.08110369E+002	
-2.30528038E-001	-1.07759994E+002	
-2.09814732E-001	-1.07758760E+002	
-1.89101427E-001	-1.07751054E+002	
-1.68388122E-001	-1.07740423E+002	
-1.47674816E-001	-1.07736146E+002	
-1.26961511E-001	-1.07734981E+002	
-1.06248206E-001	-1.07723326E+002	
-8.55349003E-002	-1.07721630E+002	
-6.48215950E-002	-1.07720171E+002	
-4.41082897E-002	-1.07722633E+002	
-2.33949844E-002	-1.07719877E+002	
-2.68167905E-003	-1.07716840E+002	
1.80316263E-002	-1.07708633E+002	
3.87449316E-002	-1.07703647E+002	
5.94582369E-002	-1.07704007E+002	
8.01715422E-002	-1.07707160E+002	
1.00884848E-001	-1.07705179E+002	
1.21598153E-001	-1.07698520E+002	
1.42311458E-001	-1.07693999E+002	
1.63024763E-001	-1.07691731E+002	
1.83738069E-001	-1.07685998E+002	
2.04451374E-001	-1.07679080E+002	
2.25164679E-001	-1.07679818E+002	
2.45877985E-001	-1.12724638E+002	
2.66591290E-001	-1.17487085E+002	
2.87304595E-001	-1.17487277E+002	
3.08017901E-001	-1.17547925E+002	
3.28731206E-001	-1.17589063E+002	
3.49444511E-001	-1.17606039E+002	
3.70157817E-001	-1.17629877E+002	
3.90871122E-001	-1.17712282E+002	
4.11584427E-001	-1.17678172E+002	
4.32297733E-001	-1.17651881E+002	
4.53011038E-001	-1.17660771E+002	
4.73724343E-001	-1.17681903E+002	
4.94437649E-001	-1.17676625E+002	
5.15150954E-001	-1.17713296E+002	
5.35864259E-001	-1.17717762E+002	
5.56577565E-001	-1.17761030E+002	
5.77290870E-001	-1.17686896E+002	
5.98004175E-001	-1.17665368E+002	
6.18717481E-001	-1.17700490E+002	
6.39430786E-001	-1.17726404E+002	
6.60144091E-001	-1.17707817E+002	
6.80857396E-001	-1.17750212E+002	
7.01570702E-001	-1.17767320E+002	
7.22284007E-001	-1.17766142E+002	
7.42997312E-001	-1.17733788E+002	
7.63710618E-001	-1.17723363E+002	
7.84423923E-001	-1.17696822E+002	
8.05137228E-001	-1.17665701E+002	
8.25850534E-001	-1.17651407E+002	
8.46563839E-001	-1.17619790E+002	
8.67277144E-001	-1.17598646E+002	
8.87990450E-001	-1.17590362E+002	
9.08703755E-001	-1.17684219E+002	
9.29417060E-001	-1.17747594E+002	
9.50130366E-001	-1.17765695E+002	
9.70843671E-001	-1.17715442E+002	
9.91556976E-001	-1.17710670E+002	
1.01227028E+000	-1.17731658E+002	
1.03298359E+000	-1.17735783E+002	
1.05369689E+000	-1.17705934E+002	
1.07441020E+000	-1.17728261E+002	
1.09512350E+000	-1.17732863E+002	
1.11583681E+000	-1.17794584E+002	
1.13655011E+000	-1.17790838E+002	
1.15726342E+000	-1.17777913E+002	
1.17797672E+000	-1.17738155E+002	
1.19869003E+000	-1.17790897E+002	
1.21940333E+000	-1.17774182E+002	
1.24011664E+000	-1.17790243E+002	
1.26082995E+000	-1.17770343E+002	
1.28154325E+000	-1.17780210E+002	
1.30225656E+000	-1.17780557E+002	
1.32296986E+000	-1.17773195E+002	
1.34368317E+000	-1.17783757E+002	
1.36439647E+000	-1.17848530E+002	
1.38510978E+000	-1.17840232E+002	
1.40582308E+000	-1.17778752E+002	
1.42653639E+000	-1.17757699E+002	
1.44724969E+000	-1.17721842E+002	
1.46796300E+000	-1.17733123E+002	
1.48867630E+000	-1.17753065E+002	
1.50938961E+000	-1.17761910E+002	
1.53010291E+000	-1.17760229E+002	
1.55081622E+000	-1.17763886E+002	
1.57152953E+000	-1.17781690E+002	
1.59224283E+000	-1.17747956E+002	
1.61295614E+000	-1.17700430E+002	
1.63366944E+000	-1.17647551E+002	
1.65438275E+000	-1.17634300E+002	
1.67509605E+000	-1.17628248E+002	
1.69580936E+000	-1.17569497E+002	
1.71652266E+000	-1.17586270E+002	
1.73723597E+000	-1.17532670E+002	
1.75794927E+000	-1.17507335E+002	
1.77866258E+000	-1.17531721E+002	
1.79937588E+000	-1.17561423E+002	
1.82008919E+000	-1.17600325E+002	
1.84080249E+000	-1.17616417E+002	
