Time (ns)	Amplitude (dB)	
-1.00072081E+001	-1.20771902E+002	
-9.98649484E+000	-1.20439129E+002	
-9.96578154E+000	-1.20088926E+002	
-9.94506823E+000	-1.19830431E+002	
-9.92435493E+000	-1.19600545E+002	
-9.90364162E+000	-1.19355521E+002	
-9.88292832E+000	-1.19141876E+002	
-9.86221501E+000	-1.18933579E+002	
-9.84150171E+000	-1.18734187E+002	
-9.82078840E+000	-1.18548857E+002	
-9.80007509E+000	-1.18349020E+002	
-9.77936179E+000	-1.18154477E+002	
-9.75864848E+000	-1.18097558E+002	
-9.73793518E+000	-1.18107850E+002	
-9.71722187E+000	-1.18106731E+002	
-9.69650857E+000	-1.18112647E+002	
-9.67579526E+000	-1.18170984E+002	
-9.65508196E+000	-1.18158284E+002	
-9.63436865E+000	-1.18104185E+002	
-9.61365535E+000	-1.18103481E+002	
-9.59294204E+000	-1.18136036E+002	
-9.57222874E+000	-1.18162917E+002	
-9.55151543E+000	-1.18176487E+002	
-9.53080213E+000	-1.18165196E+002	
-9.51008882E+000	-1.18193749E+002	
-9.48937552E+000	-1.18221323E+002	
-9.46866221E+000	-1.18214457E+002	
-9.44794890E+000	-1.18182453E+002	
-9.42723560E+000	-1.18133611E+002	
-9.40652229E+000	-1.18135559E+002	
-9.38580899E+000	-1.18113438E+002	
-9.36509568E+000	-1.18099155E+002	
-9.34438238E+000	-1.18065575E+002	
-9.32366907E+000	-1.18044515E+002	
-9.30295577E+000	-1.18044593E+002	
-9.28224246E+000	-1.18056140E+002	
-9.26152916E+000	-1.18008340E+002	
-9.24081585E+000	-1.17954491E+002	
-9.22010255E+000	-1.17942279E+002	
-9.19938924E+000	-1.17980431E+002	
-9.17867594E+000	-1.17967826E+002	
-9.15796263E+000	-1.17969173E+002	
-9.13724932E+000	-1.18031100E+002	
-9.11653602E+000	-1.18043196E+002	
-9.09582271E+000	-1.17997219E+002	
-9.07510941E+000	-1.18001139E+002	
-9.05439610E+000	-1.18002326E+002	
-9.03368280E+000	-1.17883872E+002	
-9.01296949E+000	-1.17866739E+002	
-8.99225619E+000	-1.17869499E+002	
-8.97154288E+000	-1.17925849E+002	
-8.95082958E+000	-1.17944422E+002	
-8.93011627E+000	-1.17976412E+002	
-8.90940297E+000	-1.18002264E+002	
-8.88868966E+000	-1.18024814E+002	
-8.86797636E+000	-1.18017395E+002	
-8.84726305E+000	-1.18033190E+002	
-8.82654974E+000	-1.18015186E+002	
-8.80583644E+000	-1.18025516E+002	
-8.78512313E+000	-1.18026298E+002	
-8.76440983E+000	-1.18043373E+002	
-8.74369652E+000	-1.18099623E+002	
-8.72298322E+000	-1.18116271E+002	
-8.70226991E+000	-1.18052241E+002	
-8.68155661E+000	-1.18019948E+002	
-8.66084330E+000	-1.18059146E+002	
-8.64013000E+000	-1.18029529E+002	
-8.61941669E+000	-1.17983889E+002	
-8.59870339E+000	-1.18025519E+002	
-8.57799008E+000	-1.18030122E+002	
-8.55727678E+000	-1.17996191E+002	
-8.53656347E+000	-1.18112676E+002	
-8.51585017E+000	-1.18144037E+002	
-8.49513686E+000	-1.18151929E+002	
-8.47442355E+000	-1.18134344E+002	
-8.45371025E+000	-1.18160840E+002	
-8.43299694E+000	-1.18192576E+002	
-8.41228364E+000	-1.18147541E+002	
-8.39157033E+000	-1.18118584E+002	
-8.37085703E+000	-1.18164222E+002	
-8.35014372E+000	-1.18180480E+002	
-8.32943042E+000	-1.18205539E+002	
-8.30871711E+000	-1.18166216E+002	
-8.28800381E+000	-1.18202962E+002	
-8.26729050E+000	-1.18187300E+002	
-8.24657720E+000	-1.18180050E+002	
-8.22586389E+000	-1.18160024E+002	
-8.20515059E+000	-1.18200902E+002	
-8.18443728E+000	-1.18195546E+002	
-8.16372397E+000	-1.18176064E+002	
-8.14301067E+000	-1.18126955E+002	
-8.12229736E+000	-1.18142216E+002	
-8.10158406E+000	-1.18130683E+002	
-8.08087075E+000	-1.18124327E+002	
-8.06015745E+000	-1.18098293E+002	
-8.03944414E+000	-1.18039507E+002	
-8.01873084E+000	-1.18048002E+002	
-7.99801753E+000	-1.18028316E+002	
-7.97730423E+000	-1.18024695E+002	
-7.95659092E+000	-1.18000699E+002	
-7.93587762E+000	-1.18014773E+002	
-7.91516431E+000	-1.18058975E+002	
-7.89445101E+000	-1.18055311E+002	
-7.87373770E+000	-1.18041630E+002	
-7.85302439E+000	-1.18040547E+002	
-7.83231109E+000	-1.18015798E+002	
-7.81159778E+000	-1.18065344E+002	
-7.79088448E+000	-1.18091277E+002	
-7.77017117E+000	-1.18111283E+002	
-7.74945787E+000	-1.18123919E+002	
-7.72874456E+000	-1.18135725E+002	
-7.70803126E+000	-1.18096947E+002	
-7.68731795E+000	-1.18128659E+002	
-7.66660465E+000	-1.18120858E+002	
-7.64589134E+000	-1.18121262E+002	
-7.62517804E+000	-1.18108537E+002	
-7.60446473E+000	-1.18054831E+002	
-7.58375143E+000	-1.18068987E+002	
-7.56303812E+000	-1.18094487E+002	
-7.54232482E+000	-1.18162893E+002	
-7.52161151E+000	-1.18153166E+002	
-7.50089820E+000	-1.18171970E+002	
-7.48018490E+000	-1.18144076E+002	
-7.45947159E+000	-1.18183520E+002	
-7.43875829E+000	-1.18116021E+002	
-7.41804498E+000	-1.18025379E+002	
-7.39733168E+000	-1.18078025E+002	
-7.37661837E+000	-1.18084409E+002	
-7.35590507E+000	-1.18087270E+002	
-7.33519176E+000	-1.18108112E+002	
-7.31447846E+000	-1.18122359E+002	
-7.29376515E+000	-1.18094664E+002	
-7.27305185E+000	-1.18066689E+002	
-7.25233854E+000	-1.18103785E+002	
-7.23162524E+000	-1.18122381E+002	
-7.21091193E+000	-1.18114723E+002	
-7.19019862E+000	-1.18116391E+002	
-7.16948532E+000	-1.18165301E+002	
-7.14877201E+000	-1.18233010E+002	
-7.12805871E+000	-1.18291011E+002	
-7.10734540E+000	-1.18359198E+002	
-7.08663210E+000	-1.18390199E+002	
-7.06591879E+000	-1.18375467E+002	
-7.04520549E+000	-1.18363937E+002	
-7.02449218E+000	-1.18344163E+002	
-7.00377888E+000	-1.18307551E+002	
-6.98306557E+000	-1.18342225E+002	
-6.96235227E+000	-1.18304101E+002	
-6.94163896E+000	-1.18328585E+002	
-6.92092566E+000	-1.18398198E+002	
-6.90021235E+000	-1.18383562E+002	
-6.87949904E+000	-1.18353168E+002	
-6.85878574E+000	-1.18334851E+002	
-6.83807243E+000	-1.18360102E+002	
-6.81735913E+000	-1.18382102E+002	
-6.79664582E+000	-1.18346859E+002	
-6.77593252E+000	-1.18389960E+002	
-6.75521921E+000	-1.18343506E+002	
-6.73450591E+000	-1.18329699E+002	
-6.71379260E+000	-1.18305245E+002	
-6.69307930E+000	-1.18304644E+002	
-6.67236599E+000	-1.18254762E+002	
-6.65165269E+000	-1.18230624E+002	
-6.63093938E+000	-1.18245622E+002	
-6.61022608E+000	-1.18263588E+002	
-6.58951277E+000	-1.18258122E+002	
-6.56879947E+000	-1.18252463E+002	
-6.54808616E+000	-1.18242122E+002	
-6.52737285E+000	-1.18221206E+002	
-6.50665955E+000	-1.18246085E+002	
-6.48594624E+000	-1.18292698E+002	
-6.46523294E+000	-1.18335466E+002	
-6.44451963E+000	-1.18270835E+002	
-6.42380633E+000	-1.18227235E+002	
-6.40309302E+000	-1.18230640E+002	
-6.38237972E+000	-1.18208526E+002	
-6.36166641E+000	-1.18207984E+002	
-6.34095311E+000	-1.18209179E+002	
-6.32023980E+000	-1.18194633E+002	
-6.29952650E+000	-1.18187790E+002	
-6.27881319E+000	-1.18154590E+002	
-6.25809989E+000	-1.18161367E+002	
-6.23738658E+000	-1.18149605E+002	
-6.21667327E+000	-1.18128447E+002	
-6.19595997E+000	-1.18135470E+002	
-6.17524666E+000	-1.18133613E+002	
-6.15453336E+000	-1.18143684E+002	
-6.13382005E+000	-1.18132112E+002	
-6.11310675E+000	-1.18138373E+002	
-6.09239344E+000	-1.18136711E+002	
-6.07168014E+000	-1.18087566E+002	
-6.05096683E+000	-1.18151046E+002	
-6.03025353E+000	-1.18165203E+002	
-6.00954022E+000	-1.18156093E+002	
-5.98882692E+000	-1.18098553E+002	
-5.96811361E+000	-1.18102541E+002	
-5.94740031E+000	-1.18147759E+002	
-5.92668700E+000	-1.18191288E+002	
-5.90597369E+000	-1.18206676E+002	
-5.88526039E+000	-1.18254047E+002	
-5.86454708E+000	-1.18277693E+002	
-5.84383378E+000	-1.18239231E+002	
-5.82312047E+000	-1.18265717E+002	
-5.80240717E+000	-1.18254001E+002	
-5.78169386E+000	-1.18271246E+002	
-5.76098056E+000	-1.18271166E+002	
-5.74026725E+000	-1.18275381E+002	
-5.71955395E+000	-1.18324680E+002	
-5.69884064E+000	-1.18331077E+002	
-5.67812734E+000	-1.18366542E+002	
-5.65741403E+000	-1.18360510E+002	
-5.63670073E+000	-1.18364938E+002	
-5.61598742E+000	-1.18340301E+002	
-5.59527412E+000	-1.18304788E+002	
-5.57456081E+000	-1.18365607E+002	
-5.55384750E+000	-1.18284703E+002	
-5.53313420E+000	-1.18221853E+002	
-5.51242089E+000	-1.18227834E+002	
-5.49170759E+000	-1.18227235E+002	
-5.47099428E+000	-1.18192326E+002	
-5.45028098E+000	-1.18253483E+002	
-5.42956767E+000	-1.18293589E+002	
-5.40885437E+000	-1.18282055E+002	
-5.38814106E+000	-1.18269401E+002	
-5.36742776E+000	-1.18248039E+002	
-5.34671445E+000	-1.18272739E+002	
-5.32600115E+000	-1.18260089E+002	
-5.30528784E+000	-1.18270533E+002	
-5.28457454E+000	-1.18246268E+002	
-5.26386123E+000	-1.18243597E+002	
-5.24314792E+000	-1.18184060E+002	
-5.22243462E+000	-1.18148338E+002	
-5.20172131E+000	-1.18152210E+002	
-5.18100801E+000	-1.18098135E+002	
-5.16029470E+000	-1.18094878E+002	
-5.13958140E+000	-1.18050594E+002	
-5.11886809E+000	-1.18021912E+002	
-5.09815479E+000	-1.18025366E+002	
-5.07744148E+000	-1.17991231E+002	
-5.05672818E+000	-1.18051925E+002	
-5.03601487E+000	-1.18057228E+002	
-5.01530157E+000	-1.18093595E+002	
-4.99458826E+000	-1.18106462E+002	
-4.97387496E+000	-1.18072014E+002	
-4.95316165E+000	-1.18062401E+002	
-4.93244834E+000	-1.18022827E+002	
-4.91173504E+000	-1.18008711E+002	
-4.89102173E+000	-1.18006186E+002	
-4.87030843E+000	-1.18043317E+002	
-4.84959512E+000	-1.18036857E+002	
-4.82888182E+000	-1.18009140E+002	
-4.80816851E+000	-1.18000265E+002	
-4.78745521E+000	-1.18014399E+002	
-4.76674190E+000	-1.18041962E+002	
-4.74602860E+000	-1.18070760E+002	
-4.72531529E+000	-1.18122315E+002	
-4.70460199E+000	-1.18107742E+002	
-4.68388868E+000	-1.18159287E+002	
-4.66317538E+000	-1.18147659E+002	
-4.64246207E+000	-1.18183838E+002	
-4.62174877E+000	-1.18233833E+002	
-4.60103546E+000	-1.18276348E+002	
-4.58032215E+000	-1.18295924E+002	
-4.55960885E+000	-1.18266138E+002	
-4.53889554E+000	-1.18305443E+002	
-4.51818224E+000	-1.18239564E+002	
-4.49746893E+000	-1.18192251E+002	
-4.47675563E+000	-1.18230584E+002	
-4.45604232E+000	-1.18218388E+002	
-4.43532902E+000	-1.18212628E+002	
-4.41461571E+000	-1.18197475E+002	
-4.39390241E+000	-1.18213309E+002	
-4.37318910E+000	-1.18214514E+002	
-4.35247580E+000	-1.18190104E+002	
-4.33176249E+000	-1.18179085E+002	
-4.31104919E+000	-1.18176326E+002	
-4.29033588E+000	-1.18174287E+002	
-4.26962257E+000	-1.18168409E+002	
-4.24890927E+000	-1.18207143E+002	
-4.22819596E+000	-1.18220862E+002	
-4.20748266E+000	-1.18262459E+002	
-4.18676935E+000	-1.18212685E+002	
-4.16605605E+000	-1.18216018E+002	
-4.14534274E+000	-1.18235324E+002	
-4.12462944E+000	-1.18193749E+002	
-4.10391613E+000	-1.18182145E+002	
-4.08320283E+000	-1.18174485E+002	
-4.06248952E+000	-1.18172724E+002	
-4.04177622E+000	-1.18132578E+002	
-4.02106291E+000	-1.18156079E+002	
-4.00034961E+000	-1.18159631E+002	
-3.97963630E+000	-1.18126046E+002	
-3.95892299E+000	-1.18136290E+002	
-3.93820969E+000	-1.18118934E+002	
-3.91749638E+000	-1.18140892E+002	
-3.89678308E+000	-1.18109252E+002	
-3.87606977E+000	-1.18029929E+002	
-3.85535647E+000	-1.18029296E+002	
-3.83464316E+000	-1.18024465E+002	
-3.81392986E+000	-1.18016952E+002	
-3.79321655E+000	-1.18045078E+002	
-3.77250325E+000	-1.17977579E+002	
-3.75178994E+000	-1.17977229E+002	
-3.73107664E+000	-1.17986682E+002	
-3.71036333E+000	-1.17926019E+002	
-3.68965003E+000	-1.17952932E+002	
-3.66893672E+000	-1.17998357E+002	
-3.64822342E+000	-1.17960738E+002	
-3.62751011E+000	-1.17970416E+002	
-3.60679680E+000	-1.17967263E+002	
-3.58608350E+000	-1.17972348E+002	
-3.56537019E+000	-1.17999722E+002	
-3.54465689E+000	-1.18014198E+002	
-3.52394358E+000	-1.18048935E+002	
-3.50323028E+000	-1.18094396E+002	
-3.48251697E+000	-1.18135857E+002	
-3.46180367E+000	-1.18159782E+002	
-3.44109036E+000	-1.18174157E+002	
-3.42037706E+000	-1.18207924E+002	
-3.39966375E+000	-1.18238634E+002	
-3.37895045E+000	-1.18289429E+002	
-3.35823714E+000	-1.18287657E+002	
-3.33752384E+000	-1.18294162E+002	
-3.31681053E+000	-1.18305543E+002	
-3.29609722E+000	-1.18275885E+002	
-3.27538392E+000	-1.18291813E+002	
-3.25467061E+000	-1.18295980E+002	
-3.23395731E+000	-1.18277851E+002	
-3.21324400E+000	-1.18302216E+002	
-3.19253070E+000	-1.18300169E+002	
-3.17181739E+000	-1.18276687E+002	
-3.15110409E+000	-1.18252232E+002	
-3.13039078E+000	-1.18240105E+002	
-3.10967748E+000	-1.18281372E+002	
-3.08896417E+000	-1.18263647E+002	
-3.06825087E+000	-1.18253818E+002	
-3.04753756E+000	-1.18262910E+002	
-3.02682426E+000	-1.18225964E+002	
-3.00611095E+000	-1.18152232E+002	
-2.98539764E+000	-1.18188707E+002	
-2.96468434E+000	-1.18151608E+002	
-2.94397103E+000	-1.18122799E+002	
-2.92325773E+000	-1.18084574E+002	
-2.90254442E+000	-1.18082393E+002	
-2.88183112E+000	-1.18099340E+002	
-2.86111781E+000	-1.18144450E+002	
-2.84040451E+000	-1.18187742E+002	
-2.81969120E+000	-1.18219228E+002	
-2.79897790E+000	-1.18281235E+002	
-2.77826459E+000	-1.18240839E+002	
-2.75755129E+000	-1.18219879E+002	
-2.73683798E+000	-1.18234947E+002	
-2.71612468E+000	-1.18189367E+002	
-2.69541137E+000	-1.18169702E+002	
-2.67469807E+000	-1.18231266E+002	
-2.65398476E+000	-1.18260702E+002	
-2.63327145E+000	-1.18258205E+002	
-2.61255815E+000	-1.18199747E+002	
-2.59184484E+000	-1.18205524E+002	
-2.57113154E+000	-1.18194074E+002	
-2.55041823E+000	-1.18190227E+002	
-2.52970493E+000	-1.18242385E+002	
-2.50899162E+000	-1.18316842E+002	
-2.48827832E+000	-1.18294682E+002	
-2.46756501E+000	-1.18295546E+002	
-2.44685171E+000	-1.18302151E+002	
-2.42613840E+000	-1.18326948E+002	
-2.40542510E+000	-1.18339304E+002	
-2.38471179E+000	-1.18313897E+002	
-2.36399849E+000	-1.18291111E+002	
-2.34328518E+000	-1.18240168E+002	
-2.32257187E+000	-1.18194754E+002	
-2.30185857E+000	-1.18120417E+002	
-2.28114526E+000	-1.18137400E+002	
-2.26043196E+000	-1.18210681E+002	
-2.23971865E+000	-1.18196363E+002	
-2.21900535E+000	-1.18249697E+002	
-2.19829204E+000	-1.18274299E+002	
-2.17757874E+000	-1.18233299E+002	
-2.15686543E+000	-1.18216303E+002	
-2.13615213E+000	-1.18273864E+002	
-2.11543882E+000	-1.18281247E+002	
-2.09472552E+000	-1.18290141E+002	
-2.07401221E+000	-1.18263364E+002	
-2.05329891E+000	-1.18214285E+002	
-2.03258560E+000	-1.18227568E+002	
-2.01187229E+000	-1.18218758E+002	
-1.99115899E+000	-1.18226900E+002	
-1.97044568E+000	-1.18165824E+002	
-1.94973238E+000	-1.18177901E+002	
-1.92901907E+000	-1.18156705E+002	
-1.90830577E+000	-1.18112780E+002	
-1.88759246E+000	-1.18112409E+002	
-1.86687916E+000	-1.18148108E+002	
-1.84616585E+000	-1.18118806E+002	
-1.82545255E+000	-1.18196380E+002	
-1.80473924E+000	-1.18207986E+002	
-1.78402594E+000	-1.18250760E+002	
-1.76331263E+000	-1.18249979E+002	
-1.74259933E+000	-1.18205152E+002	
-1.72188602E+000	-1.18202022E+002	
-1.70117272E+000	-1.18274876E+002	
-1.68045941E+000	-1.18301750E+002	
-1.65974610E+000	-1.18255047E+002	
-1.63903280E+000	-1.18212725E+002	
-1.61831949E+000	-1.18271498E+002	
-1.59760619E+000	-1.18285870E+002	
-1.57689288E+000	-1.18297889E+002	
-1.55617958E+000	-1.18363555E+002	
-1.53546627E+000	-1.18347158E+002	
-1.51475297E+000	-1.18351011E+002	
-1.49403966E+000	-1.18327493E+002	
-1.47332636E+000	-1.18373281E+002	
-1.45261305E+000	-1.18341983E+002	
-1.43189975E+000	-1.18341060E+002	
-1.41118644E+000	-1.18331899E+002	
-1.39047314E+000	-1.18354520E+002	
-1.36975983E+000	-1.18313803E+002	
-1.34904652E+000	-1.18312670E+002	
-1.32833322E+000	-1.18265025E+002	
-1.30761991E+000	-1.18218413E+002	
-1.28690661E+000	-1.18226437E+002	
-1.26619330E+000	-1.18217375E+002	
-1.24548000E+000	-1.18268348E+002	
-1.22476669E+000	-1.18294325E+002	
-1.20405339E+000	-1.18186656E+002	
-1.18334008E+000	-1.18169326E+002	
-1.16262678E+000	-1.18237526E+002	
-1.14191347E+000	-1.18269748E+002	
-1.12120017E+000	-1.18264590E+002	
-1.10048686E+000	-1.18238182E+002	
-1.07977356E+000	-1.18241467E+002	
-1.05906025E+000	-1.18274409E+002	
-1.03834694E+000	-1.18254072E+002	
-1.01763364E+000	-1.18186695E+002	
-9.96920334E-001	-1.18096183E+002	
-9.76207029E-001	-1.18057601E+002	
-9.55493724E-001	-1.18077619E+002	
-9.34780418E-001	-1.18095424E+002	
-9.14067113E-001	-1.18135696E+002	
-8.93353808E-001	-1.18115782E+002	
-8.72640502E-001	-1.18097674E+002	
-8.51927197E-001	-1.18132874E+002	
-8.31213892E-001	-1.18167987E+002	
-8.10500586E-001	-1.18228441E+002	
-7.89787281E-001	-1.18244011E+002	
-7.69073976E-001	-1.18252699E+002	
-7.48360671E-001	-1.18234371E+002	
-7.27647365E-001	-1.18223430E+002	
-7.06934060E-001	-1.18257274E+002	
-6.86220755E-001	-1.18284517E+002	
-6.65507449E-001	-1.18312678E+002	
-6.44794144E-001	-1.18306942E+002	
-6.24080839E-001	-1.18267519E+002	
-6.03367533E-001	-1.18266278E+002	
-5.82654228E-001	-1.18242316E+002	
-5.61940923E-001	-1.18195482E+002	
-5.41227617E-001	-1.18157370E+002	
-5.20514312E-001	-1.18189749E+002	
-4.99801007E-001	-1.18294188E+002	
-4.79087701E-001	-1.18370693E+002	
-4.58374396E-001	-1.18399765E+002	
-4.37661091E-001	-1.18364728E+002	
-4.16947785E-001	-1.18344215E+002	
-3.96234480E-001	-1.18356888E+002	
-3.75521175E-001	-1.18360866E+002	
-3.54807869E-001	-1.18367696E+002	
-3.34094564E-001	-1.18372592E+002	
-3.13381259E-001	-1.18387644E+002	
-2.92667954E-001	-1.18384464E+002	
-2.71954648E-001	-1.18353810E+002	
-2.51241343E-001	-1.08086373E+002	
-2.30528038E-001	-1.07738751E+002	
-2.09814732E-001	-1.07737789E+002	
-1.89101427E-001	-1.07730603E+002	
-1.68388122E-001	-1.07720414E+002	
-1.47674816E-001	-1.07716258E+002	
-1.26961511E-001	-1.07715184E+002	
-1.06248206E-001	-1.07703979E+002	
-8.55349003E-002	-1.07702510E+002	
-6.48215950E-002	-1.07700756E+002	
-4.41082897E-002	-1.07702594E+002	
-2.33949844E-002	-1.07700312E+002	
-2.68167905E-003	-1.07697563E+002	
1.80316263E-002	-1.07689936E+002	
3.87449316E-002	-1.07684693E+002	
5.94582369E-002	-1.07684193E+002	
8.01715422E-002	-1.07687109E+002	
1.00884848E-001	-1.07685763E+002	
1.21598153E-001	-1.07679227E+002	
1.42311458E-001	-1.07674789E+002	
1.63024763E-001	-1.07672452E+002	
1.83738069E-001	-1.07666841E+002	
2.04451374E-001	-1.07659487E+002	
2.25164679E-001	-1.07660126E+002	
2.45877985E-001	-1.12732118E+002	
2.66591290E-001	-1.17542441E+002	
2.87304595E-001	-1.17540350E+002	
3.08017901E-001	-1.17601993E+002	
3.28731206E-001	-1.17642884E+002	
3.49444511E-001	-1.17658671E+002	
3.70157817E-001	-1.17684706E+002	
3.90871122E-001	-1.17769038E+002	
4.11584427E-001	-1.17735820E+002	
4.32297733E-001	-1.17709083E+002	
4.53011038E-001	-1.17720833E+002	
4.73724343E-001	-1.17739797E+002	
4.94437649E-001	-1.17732792E+002	
5.15150954E-001	-1.17768509E+002	
5.35864259E-001	-1.17779711E+002	
5.56577565E-001	-1.17828310E+002	
5.77290870E-001	-1.17764013E+002	
5.98004175E-001	-1.17737457E+002	
6.18717481E-001	-1.17773574E+002	
6.39430786E-001	-1.17797577E+002	
6.60144091E-001	-1.17773627E+002	
6.80857396E-001	-1.17816825E+002	
7.01570702E-001	-1.17836985E+002	
7.22284007E-001	-1.17835276E+002	
7.42997312E-001	-1.17807528E+002	
7.63710618E-001	-1.17795698E+002	
7.84423923E-001	-1.17767298E+002	
8.05137228E-001	-1.17733229E+002	
8.25850534E-001	-1.17718974E+002	
8.46563839E-001	-1.17682716E+002	
8.67277144E-001	-1.17660474E+002	
8.87990450E-001	-1.17645031E+002	
9.08703755E-001	-1.17731654E+002	
9.29417060E-001	-1.17790266E+002	
9.50130366E-001	-1.17810576E+002	
9.70843671E-001	-1.17761983E+002	
9.91556976E-001	-1.17758874E+002	
1.01227028E+000	-1.17773186E+002	
1.03298359E+000	-1.17769914E+002	
1.05369689E+000	-1.17735053E+002	
1.07441020E+000	-1.17750881E+002	
1.09512350E+000	-1.17753279E+002	
1.11583681E+000	-1.17808342E+002	
1.13655011E+000	-1.17800095E+002	
1.15726342E+000	-1.17795507E+002	
1.17797672E+000	-1.17757221E+002	
1.19869003E+000	-1.17804346E+002	
1.21940333E+000	-1.17789755E+002	
1.24011664E+000	-1.17808208E+002	
1.26082995E+000	-1.17789970E+002	
1.28154325E+000	-1.17797157E+002	
1.30225656E+000	-1.17795676E+002	
1.32296986E+000	-1.17787187E+002	
1.34368317E+000	-1.17805943E+002	
1.36439647E+000	-1.17868292E+002	
1.38510978E+000	-1.17864509E+002	
1.40582308E+000	-1.17809353E+002	
1.42653639E+000	-1.17788979E+002	
1.44724969E+000	-1.17753739E+002	
1.46796300E+000	-1.17765986E+002	
1.48867630E+000	-1.17790290E+002	
1.50938961E+000	-1.17802433E+002	
1.53010291E+000	-1.17810395E+002	
1.55081622E+000	-1.17820121E+002	
1.57152953E+000	-1.17835741E+002	
1.59224283E+000	-1.17806281E+002	
1.61295614E+000	-1.17764877E+002	
1.63366944E+000	-1.17716308E+002	
1.65438275E+000	-1.17706399E+002	
1.67509605E+000	-1.17698856E+002	
1.69580936E+000	-1.17643070E+002	
1.71652266E+000	-1.17658534E+002	
1.73723597E+000	-1.17604601E+002	
1.75794927E+000	-1.17577598E+002	
1.77866258E+000	-1.17603114E+002	
1.79937588E+000	-1.17632458E+002	
1.82008919E+000	-1.17672112E+002	
1.84080249E+000	-1.17682464E+002	
