Time (ns)	Amplitude (dB)	
-1.00072081E+001	-1.20797735E+002	
-9.98649484E+000	-1.20467418E+002	
-9.96578154E+000	-1.20117154E+002	
-9.94506823E+000	-1.19857535E+002	
-9.92435493E+000	-1.19627586E+002	
-9.90364162E+000	-1.19387198E+002	
-9.88292832E+000	-1.19168204E+002	
-9.86221501E+000	-1.18960863E+002	
-9.84150171E+000	-1.18764781E+002	
-9.82078840E+000	-1.18585274E+002	
-9.80007509E+000	-1.18383963E+002	
-9.77936179E+000	-1.18184594E+002	
-9.75864848E+000	-1.18124388E+002	
-9.73793518E+000	-1.18128217E+002	
-9.71722187E+000	-1.18126255E+002	
-9.69650857E+000	-1.18127193E+002	
-9.67579526E+000	-1.18182639E+002	
-9.65508196E+000	-1.18166768E+002	
-9.63436865E+000	-1.18115010E+002	
-9.61365535E+000	-1.18119398E+002	
-9.59294204E+000	-1.18149881E+002	
-9.57222874E+000	-1.18176289E+002	
-9.55151543E+000	-1.18193477E+002	
-9.53080213E+000	-1.18182179E+002	
-9.51008882E+000	-1.18214258E+002	
-9.48937552E+000	-1.18243741E+002	
-9.46866221E+000	-1.18237530E+002	
-9.44794890E+000	-1.18205621E+002	
-9.42723560E+000	-1.18162129E+002	
-9.40652229E+000	-1.18157833E+002	
-9.38580899E+000	-1.18133337E+002	
-9.36509568E+000	-1.18118228E+002	
-9.34438238E+000	-1.18081288E+002	
-9.32366907E+000	-1.18052528E+002	
-9.30295577E+000	-1.18056631E+002	
-9.28224246E+000	-1.18078244E+002	
-9.26152916E+000	-1.18034440E+002	
-9.24081585E+000	-1.17984211E+002	
-9.22010255E+000	-1.17974416E+002	
-9.19938924E+000	-1.18014573E+002	
-9.17867594E+000	-1.18002164E+002	
-9.15796263E+000	-1.18004012E+002	
-9.13724932E+000	-1.18063491E+002	
-9.11653602E+000	-1.18071268E+002	
-9.09582271E+000	-1.18024344E+002	
-9.07510941E+000	-1.18033054E+002	
-9.05439610E+000	-1.18040991E+002	
-9.03368280E+000	-1.17917796E+002	
-9.01296949E+000	-1.17899225E+002	
-8.99225619E+000	-1.17899865E+002	
-8.97154288E+000	-1.17952570E+002	
-8.95082958E+000	-1.17975191E+002	
-8.93011627E+000	-1.18000071E+002	
-8.90940297E+000	-1.18022393E+002	
-8.88868966E+000	-1.18052496E+002	
-8.86797636E+000	-1.18045743E+002	
-8.84726305E+000	-1.18060375E+002	
-8.82654974E+000	-1.18047285E+002	
-8.80583644E+000	-1.18057319E+002	
-8.78512313E+000	-1.18053649E+002	
-8.76440983E+000	-1.18070563E+002	
-8.74369652E+000	-1.18126792E+002	
-8.72298322E+000	-1.18146469E+002	
-8.70226991E+000	-1.18075992E+002	
-8.68155661E+000	-1.18039750E+002	
-8.66084330E+000	-1.18074306E+002	
-8.64013000E+000	-1.18046102E+002	
-8.61941669E+000	-1.17999437E+002	
-8.59870339E+000	-1.18039943E+002	
-8.57799008E+000	-1.18047107E+002	
-8.55727678E+000	-1.18008525E+002	
-8.53656347E+000	-1.18125412E+002	
-8.51585017E+000	-1.18150043E+002	
-8.49513686E+000	-1.18150410E+002	
-8.47442355E+000	-1.18130894E+002	
-8.45371025E+000	-1.18157729E+002	
-8.43299694E+000	-1.18197196E+002	
-8.41228364E+000	-1.18161290E+002	
-8.39157033E+000	-1.18134785E+002	
-8.37085703E+000	-1.18182912E+002	
-8.35014372E+000	-1.18198851E+002	
-8.32943042E+000	-1.18219074E+002	
-8.30871711E+000	-1.18181149E+002	
-8.28800381E+000	-1.18218699E+002	
-8.26729050E+000	-1.18200553E+002	
-8.24657720E+000	-1.18196302E+002	
-8.22586389E+000	-1.18170824E+002	
-8.20515059E+000	-1.18214762E+002	
-8.18443728E+000	-1.18211994E+002	
-8.16372397E+000	-1.18194174E+002	
-8.14301067E+000	-1.18147922E+002	
-8.12229736E+000	-1.18165416E+002	
-8.10158406E+000	-1.18162449E+002	
-8.08087075E+000	-1.18157767E+002	
-8.06015745E+000	-1.18132975E+002	
-8.03944414E+000	-1.18073879E+002	
-8.01873084E+000	-1.18086802E+002	
-7.99801753E+000	-1.18072162E+002	
-7.97730423E+000	-1.18074896E+002	
-7.95659092E+000	-1.18041533E+002	
-7.93587762E+000	-1.18047270E+002	
-7.91516431E+000	-1.18083718E+002	
-7.89445101E+000	-1.18082823E+002	
-7.87373770E+000	-1.18061946E+002	
-7.85302439E+000	-1.18055708E+002	
-7.83231109E+000	-1.18040911E+002	
-7.81159778E+000	-1.18091138E+002	
-7.79088448E+000	-1.18115593E+002	
-7.77017117E+000	-1.18143397E+002	
-7.74945787E+000	-1.18158331E+002	
-7.72874456E+000	-1.18170242E+002	
-7.70803126E+000	-1.18138274E+002	
-7.68731795E+000	-1.18171407E+002	
-7.66660465E+000	-1.18163681E+002	
-7.64589134E+000	-1.18163327E+002	
-7.62517804E+000	-1.18145140E+002	
-7.60446473E+000	-1.18087585E+002	
-7.58375143E+000	-1.18100228E+002	
-7.56303812E+000	-1.18133128E+002	
-7.54232482E+000	-1.18199698E+002	
-7.52161151E+000	-1.18190481E+002	
-7.50089820E+000	-1.18205518E+002	
-7.48018490E+000	-1.18174542E+002	
-7.45947159E+000	-1.18219586E+002	
-7.43875829E+000	-1.18154520E+002	
-7.41804498E+000	-1.18068205E+002	
-7.39733168E+000	-1.18116601E+002	
-7.37661837E+000	-1.18129319E+002	
-7.35590507E+000	-1.18137529E+002	
-7.33519176E+000	-1.18151205E+002	
-7.31447846E+000	-1.18163117E+002	
-7.29376515E+000	-1.18131764E+002	
-7.27305185E+000	-1.18098677E+002	
-7.25233854E+000	-1.18129392E+002	
-7.23162524E+000	-1.18153550E+002	
-7.21091193E+000	-1.18145604E+002	
-7.19019862E+000	-1.18147997E+002	
-7.16948532E+000	-1.18200829E+002	
-7.14877201E+000	-1.18272736E+002	
-7.12805871E+000	-1.18329845E+002	
-7.10734540E+000	-1.18398436E+002	
-7.08663210E+000	-1.18431785E+002	
-7.06591879E+000	-1.18407573E+002	
-7.04520549E+000	-1.18395612E+002	
-7.02449218E+000	-1.18373424E+002	
-7.00377888E+000	-1.18334989E+002	
-6.98306557E+000	-1.18376176E+002	
-6.96235227E+000	-1.18338804E+002	
-6.94163896E+000	-1.18364756E+002	
-6.92092566E+000	-1.18442525E+002	
-6.90021235E+000	-1.18429875E+002	
-6.87949904E+000	-1.18396655E+002	
-6.85878574E+000	-1.18381189E+002	
-6.83807243E+000	-1.18405388E+002	
-6.81735913E+000	-1.18425868E+002	
-6.79664582E+000	-1.18390483E+002	
-6.77593252E+000	-1.18430487E+002	
-6.75521921E+000	-1.18384400E+002	
-6.73450591E+000	-1.18365634E+002	
-6.71379260E+000	-1.18334255E+002	
-6.69307930E+000	-1.18329652E+002	
-6.67236599E+000	-1.18284337E+002	
-6.65165269E+000	-1.18261512E+002	
-6.63093938E+000	-1.18282575E+002	
-6.61022608E+000	-1.18303522E+002	
-6.58951277E+000	-1.18299663E+002	
-6.56879947E+000	-1.18289931E+002	
-6.54808616E+000	-1.18281148E+002	
-6.52737285E+000	-1.18264662E+002	
-6.50665955E+000	-1.18292527E+002	
-6.48594624E+000	-1.18331713E+002	
-6.46523294E+000	-1.18366566E+002	
-6.44451963E+000	-1.18301402E+002	
-6.42380633E+000	-1.18251424E+002	
-6.40309302E+000	-1.18246640E+002	
-6.38237972E+000	-1.18218727E+002	
-6.36166641E+000	-1.18216085E+002	
-6.34095311E+000	-1.18221385E+002	
-6.32023980E+000	-1.18212121E+002	
-6.29952650E+000	-1.18218471E+002	
-6.27881319E+000	-1.18194532E+002	
-6.25809989E+000	-1.18207905E+002	
-6.23738658E+000	-1.18201857E+002	
-6.21667327E+000	-1.18198644E+002	
-6.19595997E+000	-1.18215415E+002	
-6.17524666E+000	-1.18217052E+002	
-6.15453336E+000	-1.18220028E+002	
-6.13382005E+000	-1.18195567E+002	
-6.11310675E+000	-1.18192700E+002	
-6.09239344E+000	-1.18186556E+002	
-6.07168014E+000	-1.18148622E+002	
-6.05096683E+000	-1.18209900E+002	
-6.03025353E+000	-1.18220669E+002	
-6.00954022E+000	-1.18212568E+002	
-5.98882692E+000	-1.18167387E+002	
-5.96811361E+000	-1.18177954E+002	
-5.94740031E+000	-1.18223687E+002	
-5.92668700E+000	-1.18266526E+002	
-5.90597369E+000	-1.18285004E+002	
-5.88526039E+000	-1.18338458E+002	
-5.86454708E+000	-1.18363227E+002	
-5.84383378E+000	-1.18329537E+002	
-5.82312047E+000	-1.18346292E+002	
-5.80240717E+000	-1.18317524E+002	
-5.78169386E+000	-1.18329379E+002	
-5.76098056E+000	-1.18321028E+002	
-5.74026725E+000	-1.18311969E+002	
-5.71955395E+000	-1.18346140E+002	
-5.69884064E+000	-1.18345813E+002	
-5.67812734E+000	-1.18366815E+002	
-5.65741403E+000	-1.18359642E+002	
-5.63670073E+000	-1.18371726E+002	
-5.61598742E+000	-1.18355589E+002	
-5.59527412E+000	-1.18327968E+002	
-5.57456081E+000	-1.18380629E+002	
-5.55384750E+000	-1.18292364E+002	
-5.53313420E+000	-1.18221113E+002	
-5.51242089E+000	-1.18229017E+002	
-5.49170759E+000	-1.18217168E+002	
-5.47099428E+000	-1.18191741E+002	
-5.45028098E+000	-1.18246959E+002	
-5.42956767E+000	-1.18294890E+002	
-5.40885437E+000	-1.18283444E+002	
-5.38814106E+000	-1.18271882E+002	
-5.36742776E+000	-1.18249052E+002	
-5.34671445E+000	-1.18272222E+002	
-5.32600115E+000	-1.18268050E+002	
-5.30528784E+000	-1.18286742E+002	
-5.28457454E+000	-1.18259487E+002	
-5.26386123E+000	-1.18259131E+002	
-5.24314792E+000	-1.18218891E+002	
-5.22243462E+000	-1.18191296E+002	
-5.20172131E+000	-1.18192453E+002	
-5.18100801E+000	-1.18147565E+002	
-5.16029470E+000	-1.18139508E+002	
-5.13958140E+000	-1.18098472E+002	
-5.11886809E+000	-1.18073417E+002	
-5.09815479E+000	-1.18077957E+002	
-5.07744148E+000	-1.18035639E+002	
-5.05672818E+000	-1.18094421E+002	
-5.03601487E+000	-1.18107989E+002	
-5.01530157E+000	-1.18142728E+002	
-4.99458826E+000	-1.18161994E+002	
-4.97387496E+000	-1.18109196E+002	
-4.95316165E+000	-1.18100643E+002	
-4.93244834E+000	-1.18053131E+002	
-4.91173504E+000	-1.18037923E+002	
-4.89102173E+000	-1.18032363E+002	
-4.87030843E+000	-1.18067272E+002	
-4.84959512E+000	-1.18054084E+002	
-4.82888182E+000	-1.18022163E+002	
-4.80816851E+000	-1.18013265E+002	
-4.78745521E+000	-1.18032098E+002	
-4.76674190E+000	-1.18061887E+002	
-4.74602860E+000	-1.18081617E+002	
-4.72531529E+000	-1.18126953E+002	
-4.70460199E+000	-1.18106936E+002	
-4.68388868E+000	-1.18146683E+002	
-4.66317538E+000	-1.18139609E+002	
-4.64246207E+000	-1.18174299E+002	
-4.62174877E+000	-1.18216760E+002	
-4.60103546E+000	-1.18251479E+002	
-4.58032215E+000	-1.18280158E+002	
-4.55960885E+000	-1.18264208E+002	
-4.53889554E+000	-1.18298392E+002	
-4.51818224E+000	-1.18228290E+002	
-4.49746893E+000	-1.18179970E+002	
-4.47675563E+000	-1.18231217E+002	
-4.45604232E+000	-1.18222131E+002	
-4.43532902E+000	-1.18222365E+002	
-4.41461571E+000	-1.18208556E+002	
-4.39390241E+000	-1.18226444E+002	
-4.37318910E+000	-1.18230003E+002	
-4.35247580E+000	-1.18206672E+002	
-4.33176249E+000	-1.18195861E+002	
-4.31104919E+000	-1.18189908E+002	
-4.29033588E+000	-1.18178618E+002	
-4.26962257E+000	-1.18169034E+002	
-4.24890927E+000	-1.18205160E+002	
-4.22819596E+000	-1.18220562E+002	
-4.20748266E+000	-1.18269470E+002	
-4.18676935E+000	-1.18229068E+002	
-4.16605605E+000	-1.18237491E+002	
-4.14534274E+000	-1.18256398E+002	
-4.12462944E+000	-1.18215811E+002	
-4.10391613E+000	-1.18204087E+002	
-4.08320283E+000	-1.18190828E+002	
-4.06248952E+000	-1.18181585E+002	
-4.04177622E+000	-1.18153332E+002	
-4.02106291E+000	-1.18193370E+002	
-4.00034961E+000	-1.18199350E+002	
-3.97963630E+000	-1.18162470E+002	
-3.95892299E+000	-1.18175269E+002	
-3.93820969E+000	-1.18154145E+002	
-3.91749638E+000	-1.18173825E+002	
-3.89678308E+000	-1.18140585E+002	
-3.87606977E+000	-1.18064727E+002	
-3.85535647E+000	-1.18066297E+002	
-3.83464316E+000	-1.18064961E+002	
-3.81392986E+000	-1.18056665E+002	
-3.79321655E+000	-1.18086473E+002	
-3.77250325E+000	-1.18020012E+002	
-3.75178994E+000	-1.18015762E+002	
-3.73107664E+000	-1.18020068E+002	
-3.71036333E+000	-1.17953638E+002	
-3.68965003E+000	-1.17980845E+002	
-3.66893672E+000	-1.18025046E+002	
-3.64822342E+000	-1.17988397E+002	
-3.62751011E+000	-1.18002480E+002	
-3.60679680E+000	-1.18000807E+002	
-3.58608350E+000	-1.18002129E+002	
-3.56537019E+000	-1.18028347E+002	
-3.54465689E+000	-1.18037609E+002	
-3.52394358E+000	-1.18061023E+002	
-3.50323028E+000	-1.18102910E+002	
-3.48251697E+000	-1.18136142E+002	
-3.46180367E+000	-1.18160848E+002	
-3.44109036E+000	-1.18174900E+002	
-3.42037706E+000	-1.18205068E+002	
-3.39966375E+000	-1.18236524E+002	
-3.37895045E+000	-1.18290954E+002	
-3.35823714E+000	-1.18291187E+002	
-3.33752384E+000	-1.18296912E+002	
-3.31681053E+000	-1.18310253E+002	
-3.29609722E+000	-1.18279185E+002	
-3.27538392E+000	-1.18300418E+002	
-3.25467061E+000	-1.18309425E+002	
-3.23395731E+000	-1.18294250E+002	
-3.21324400E+000	-1.18322203E+002	
-3.19253070E+000	-1.18318083E+002	
-3.17181739E+000	-1.18293287E+002	
-3.15110409E+000	-1.18266868E+002	
-3.13039078E+000	-1.18255670E+002	
-3.10967748E+000	-1.18295094E+002	
-3.08896417E+000	-1.18284302E+002	
-3.06825087E+000	-1.18270321E+002	
-3.04753756E+000	-1.18278231E+002	
-3.02682426E+000	-1.18242234E+002	
-3.00611095E+000	-1.18170922E+002	
-2.98539764E+000	-1.18212606E+002	
-2.96468434E+000	-1.18176782E+002	
-2.94397103E+000	-1.18154365E+002	
-2.92325773E+000	-1.18118379E+002	
-2.90254442E+000	-1.18117973E+002	
-2.88183112E+000	-1.18126408E+002	
-2.86111781E+000	-1.18168654E+002	
-2.84040451E+000	-1.18212202E+002	
-2.81969120E+000	-1.18246948E+002	
-2.79897790E+000	-1.18318511E+002	
-2.77826459E+000	-1.18276898E+002	
-2.75755129E+000	-1.18250768E+002	
-2.73683798E+000	-1.18267008E+002	
-2.71612468E+000	-1.18224587E+002	
-2.69541137E+000	-1.18204935E+002	
-2.67469807E+000	-1.18262630E+002	
-2.65398476E+000	-1.18284888E+002	
-2.63327145E+000	-1.18278267E+002	
-2.61255815E+000	-1.18224833E+002	
-2.59184484E+000	-1.18226938E+002	
-2.57113154E+000	-1.18220631E+002	
-2.55041823E+000	-1.18232070E+002	
-2.52970493E+000	-1.18291332E+002	
-2.50899162E+000	-1.18361889E+002	
-2.48827832E+000	-1.18338850E+002	
-2.46756501E+000	-1.18343019E+002	
-2.44685171E+000	-1.18344015E+002	
-2.42613840E+000	-1.18366477E+002	
-2.40542510E+000	-1.18378837E+002	
-2.38471179E+000	-1.18357445E+002	
-2.36399849E+000	-1.18335932E+002	
-2.34328518E+000	-1.18283712E+002	
-2.32257187E+000	-1.18223459E+002	
-2.30185857E+000	-1.18144367E+002	
-2.28114526E+000	-1.18162826E+002	
-2.26043196E+000	-1.18246886E+002	
-2.23971865E+000	-1.18238174E+002	
-2.21900535E+000	-1.18287150E+002	
-2.19829204E+000	-1.18306080E+002	
-2.17757874E+000	-1.18265433E+002	
-2.15686543E+000	-1.18251289E+002	
-2.13615213E+000	-1.18311840E+002	
-2.11543882E+000	-1.18313843E+002	
-2.09472552E+000	-1.18320708E+002	
-2.07401221E+000	-1.18293137E+002	
-2.05329891E+000	-1.18237710E+002	
-2.03258560E+000	-1.18242701E+002	
-2.01187229E+000	-1.18231848E+002	
-1.99115899E+000	-1.18239374E+002	
-1.97044568E+000	-1.18165712E+002	
-1.94973238E+000	-1.18175434E+002	
-1.92901907E+000	-1.18154380E+002	
-1.90830577E+000	-1.18104331E+002	
-1.88759246E+000	-1.18102644E+002	
-1.86687916E+000	-1.18130904E+002	
-1.84616585E+000	-1.18103129E+002	
-1.82545255E+000	-1.18186285E+002	
-1.80473924E+000	-1.18201486E+002	
-1.78402594E+000	-1.18239684E+002	
-1.76331263E+000	-1.18234037E+002	
-1.74259933E+000	-1.18181360E+002	
-1.72188602E+000	-1.18177521E+002	
-1.70117272E+000	-1.18252086E+002	
-1.68045941E+000	-1.18279544E+002	
-1.65974610E+000	-1.18238898E+002	
-1.63903280E+000	-1.18198916E+002	
-1.61831949E+000	-1.18257423E+002	
-1.59760619E+000	-1.18273834E+002	
-1.57689288E+000	-1.18285996E+002	
-1.55617958E+000	-1.18343298E+002	
-1.53546627E+000	-1.18334256E+002	
-1.51475297E+000	-1.18342002E+002	
-1.49403966E+000	-1.18314427E+002	
-1.47332636E+000	-1.18367801E+002	
-1.45261305E+000	-1.18340925E+002	
-1.43189975E+000	-1.18346699E+002	
-1.41118644E+000	-1.18338466E+002	
-1.39047314E+000	-1.18369065E+002	
-1.36975983E+000	-1.18338558E+002	
-1.34904652E+000	-1.18338469E+002	
-1.32833322E+000	-1.18291846E+002	
-1.30761991E+000	-1.18242391E+002	
-1.28690661E+000	-1.18249737E+002	
-1.26619330E+000	-1.18241005E+002	
-1.24548000E+000	-1.18289520E+002	
-1.22476669E+000	-1.18311445E+002	
-1.20405339E+000	-1.18210249E+002	
-1.18334008E+000	-1.18198069E+002	
-1.16262678E+000	-1.18264870E+002	
-1.14191347E+000	-1.18295145E+002	
-1.12120017E+000	-1.18288328E+002	
-1.10048686E+000	-1.18262459E+002	
-1.07977356E+000	-1.18272094E+002	
-1.05906025E+000	-1.18310430E+002	
-1.03834694E+000	-1.18282011E+002	
-1.01763364E+000	-1.18216098E+002	
-9.96920334E-001	-1.18137037E+002	
-9.76207029E-001	-1.18094972E+002	
-9.55493724E-001	-1.18111791E+002	
-9.34780418E-001	-1.18124162E+002	
-9.14067113E-001	-1.18167467E+002	
-8.93353808E-001	-1.18151177E+002	
-8.72640502E-001	-1.18130854E+002	
-8.51927197E-001	-1.18163134E+002	
-8.31213892E-001	-1.18200411E+002	
-8.10500586E-001	-1.18260663E+002	
-7.89787281E-001	-1.18279305E+002	
-7.69073976E-001	-1.18289589E+002	
-7.48360671E-001	-1.18276029E+002	
-7.27647365E-001	-1.18270254E+002	
-7.06934060E-001	-1.18297823E+002	
-6.86220755E-001	-1.18323958E+002	
-6.65507449E-001	-1.18349019E+002	
-6.44794144E-001	-1.18339492E+002	
-6.24080839E-001	-1.18304895E+002	
-6.03367533E-001	-1.18301460E+002	
-5.82654228E-001	-1.18273396E+002	
-5.61940923E-001	-1.18220300E+002	
-5.41227617E-001	-1.18184404E+002	
-5.20514312E-001	-1.18214536E+002	
-4.99801007E-001	-1.18310449E+002	
-4.79087701E-001	-1.18390282E+002	
-4.58374396E-001	-1.18424060E+002	
-4.37661091E-001	-1.18389531E+002	
-4.16947785E-001	-1.18366238E+002	
-3.96234480E-001	-1.18370445E+002	
-3.75521175E-001	-1.18371618E+002	
-3.54807869E-001	-1.18379352E+002	
-3.34094564E-001	-1.18379402E+002	
-3.13381259E-001	-1.18391698E+002	
-2.92667954E-001	-1.18385375E+002	
-2.71954648E-001	-1.18353602E+002	
-2.51241343E-001	-1.08081972E+002	
-2.30528038E-001	-1.07730940E+002	
-2.09814732E-001	-1.07729895E+002	
-1.89101427E-001	-1.07722636E+002	
-1.68388122E-001	-1.07712571E+002	
-1.47674816E-001	-1.07708941E+002	
-1.26961511E-001	-1.07707736E+002	
-1.06248206E-001	-1.07696582E+002	
-8.55349003E-002	-1.07695141E+002	
-6.48215950E-002	-1.07693786E+002	
-4.41082897E-002	-1.07696142E+002	
-2.33949844E-002	-1.07693677E+002	
-2.68167905E-003	-1.07690999E+002	
1.80316263E-002	-1.07683346E+002	
3.87449316E-002	-1.07677456E+002	
5.94582369E-002	-1.07677205E+002	
8.01715422E-002	-1.07680528E+002	
1.00884848E-001	-1.07678953E+002	
1.21598153E-001	-1.07671990E+002	
1.42311458E-001	-1.07667686E+002	
1.63024763E-001	-1.07665919E+002	
1.83738069E-001	-1.07660474E+002	
2.04451374E-001	-1.07652739E+002	
2.25164679E-001	-1.07652920E+002	
2.45877985E-001	-1.12717674E+002	
2.66591290E-001	-1.17540612E+002	
2.87304595E-001	-1.17543237E+002	
3.08017901E-001	-1.17600134E+002	
3.28731206E-001	-1.17638209E+002	
3.49444511E-001	-1.17649304E+002	
3.70157817E-001	-1.17678263E+002	
3.90871122E-001	-1.17761836E+002	
4.11584427E-001	-1.17729627E+002	
4.32297733E-001	-1.17703487E+002	
4.53011038E-001	-1.17713139E+002	
4.73724343E-001	-1.17736677E+002	
4.94437649E-001	-1.17732089E+002	
5.15150954E-001	-1.17767156E+002	
5.35864259E-001	-1.17773812E+002	
5.56577565E-001	-1.17819826E+002	
5.77290870E-001	-1.17755450E+002	
5.98004175E-001	-1.17731768E+002	
6.18717481E-001	-1.17770585E+002	
6.39430786E-001	-1.17795569E+002	
6.60144091E-001	-1.17777992E+002	
6.80857396E-001	-1.17817104E+002	
7.01570702E-001	-1.17837534E+002	
7.22284007E-001	-1.17842947E+002	
7.42997312E-001	-1.17814596E+002	
7.63710618E-001	-1.17803999E+002	
7.84423923E-001	-1.17772183E+002	
8.05137228E-001	-1.17740393E+002	
8.25850534E-001	-1.17724067E+002	
8.46563839E-001	-1.17694034E+002	
8.67277144E-001	-1.17669301E+002	
8.87990450E-001	-1.17656864E+002	
9.08703755E-001	-1.17745782E+002	
9.29417060E-001	-1.17809085E+002	
9.50130366E-001	-1.17827552E+002	
9.70843671E-001	-1.17773806E+002	
9.91556976E-001	-1.17766413E+002	
1.01227028E+000	-1.17782362E+002	
1.03298359E+000	-1.17787322E+002	
1.05369689E+000	-1.17755339E+002	
1.07441020E+000	-1.17771945E+002	
1.09512350E+000	-1.17776398E+002	
1.11583681E+000	-1.17836196E+002	
1.13655011E+000	-1.17833418E+002	
1.15726342E+000	-1.17822279E+002	
1.17797672E+000	-1.17785546E+002	
1.19869003E+000	-1.17837211E+002	
1.21940333E+000	-1.17817201E+002	
1.24011664E+000	-1.17830690E+002	
1.26082995E+000	-1.17815109E+002	
1.28154325E+000	-1.17827190E+002	
1.30225656E+000	-1.17833082E+002	
1.32296986E+000	-1.17832326E+002	
1.34368317E+000	-1.17854183E+002	
1.36439647E+000	-1.17917485E+002	
1.38510978E+000	-1.17906348E+002	
1.40582308E+000	-1.17848206E+002	
1.42653639E+000	-1.17828837E+002	
1.44724969E+000	-1.17793486E+002	
1.46796300E+000	-1.17802425E+002	
1.48867630E+000	-1.17822977E+002	
1.50938961E+000	-1.17830541E+002	
1.53010291E+000	-1.17832032E+002	
1.55081622E+000	-1.17841169E+002	
1.57152953E+000	-1.17856386E+002	
1.59224283E+000	-1.17824040E+002	
1.61295614E+000	-1.17780760E+002	
1.63366944E+000	-1.17728302E+002	
1.65438275E+000	-1.17708309E+002	
1.67509605E+000	-1.17699624E+002	
1.69580936E+000	-1.17637422E+002	
1.71652266E+000	-1.17654723E+002	
1.73723597E+000	-1.17602858E+002	
1.75794927E+000	-1.17576848E+002	
1.77866258E+000	-1.17601873E+002	
1.79937588E+000	-1.17631985E+002	
1.82008919E+000	-1.17670785E+002	
1.84080249E+000	-1.17677012E+002	
