Time (ns)	Amplitude (dB)	
-1.00072081E+001	-1.20745872E+002	
-9.98649484E+000	-1.20413382E+002	
-9.96578154E+000	-1.20052710E+002	
-9.94506823E+000	-1.19787169E+002	
-9.92435493E+000	-1.19552730E+002	
-9.90364162E+000	-1.19311517E+002	
-9.88292832E+000	-1.19094255E+002	
-9.86221501E+000	-1.18884649E+002	
-9.84150171E+000	-1.18685646E+002	
-9.82078840E+000	-1.18504994E+002	
-9.80007509E+000	-1.18304535E+002	
-9.77936179E+000	-1.18100783E+002	
-9.75864848E+000	-1.18043408E+002	
-9.73793518E+000	-1.18054493E+002	
-9.71722187E+000	-1.18049051E+002	
-9.69650857E+000	-1.18052729E+002	
-9.67579526E+000	-1.18112677E+002	
-9.65508196E+000	-1.18099132E+002	
-9.63436865E+000	-1.18045992E+002	
-9.61365535E+000	-1.18049092E+002	
-9.59294204E+000	-1.18073890E+002	
-9.57222874E+000	-1.18093775E+002	
-9.55151543E+000	-1.18109454E+002	
-9.53080213E+000	-1.18098654E+002	
-9.51008882E+000	-1.18131183E+002	
-9.48937552E+000	-1.18158991E+002	
-9.46866221E+000	-1.18166632E+002	
-9.44794890E+000	-1.18141508E+002	
-9.42723560E+000	-1.18097514E+002	
-9.40652229E+000	-1.18094922E+002	
-9.38580899E+000	-1.18078302E+002	
-9.36509568E+000	-1.18067647E+002	
-9.34438238E+000	-1.18028340E+002	
-9.32366907E+000	-1.17999012E+002	
-9.30295577E+000	-1.17999661E+002	
-9.28224246E+000	-1.18027134E+002	
-9.26152916E+000	-1.17984749E+002	
-9.24081585E+000	-1.17924453E+002	
-9.22010255E+000	-1.17910646E+002	
-9.19938924E+000	-1.17950951E+002	
-9.17867594E+000	-1.17931788E+002	
-9.15796263E+000	-1.17934240E+002	
-9.13724932E+000	-1.17997996E+002	
-9.11653602E+000	-1.18004363E+002	
-9.09582271E+000	-1.17964396E+002	
-9.07510941E+000	-1.17970605E+002	
-9.05439610E+000	-1.17974519E+002	
-9.03368280E+000	-1.17853379E+002	
-9.01296949E+000	-1.17840757E+002	
-8.99225619E+000	-1.17843697E+002	
-8.97154288E+000	-1.17887866E+002	
-8.95082958E+000	-1.17905360E+002	
-8.93011627E+000	-1.17930642E+002	
-8.90940297E+000	-1.17951852E+002	
-8.88868966E+000	-1.17970187E+002	
-8.86797636E+000	-1.17964038E+002	
-8.84726305E+000	-1.17987122E+002	
-8.82654974E+000	-1.17977195E+002	
-8.80583644E+000	-1.17991304E+002	
-8.78512313E+000	-1.17985169E+002	
-8.76440983E+000	-1.18000402E+002	
-8.74369652E+000	-1.18060766E+002	
-8.72298322E+000	-1.18080869E+002	
-8.70226991E+000	-1.18014436E+002	
-8.68155661E+000	-1.17979898E+002	
-8.66084330E+000	-1.18011226E+002	
-8.64013000E+000	-1.17979723E+002	
-8.61941669E+000	-1.17939722E+002	
-8.59870339E+000	-1.17978269E+002	
-8.57799008E+000	-1.17978359E+002	
-8.55727678E+000	-1.17936487E+002	
-8.53656347E+000	-1.18055640E+002	
-8.51585017E+000	-1.18082004E+002	
-8.49513686E+000	-1.18089031E+002	
-8.47442355E+000	-1.18079915E+002	
-8.45371025E+000	-1.18108310E+002	
-8.43299694E+000	-1.18152153E+002	
-8.41228364E+000	-1.18112347E+002	
-8.39157033E+000	-1.18087535E+002	
-8.37085703E+000	-1.18131346E+002	
-8.35014372E+000	-1.18145531E+002	
-8.32943042E+000	-1.18161211E+002	
-8.30871711E+000	-1.18117238E+002	
-8.28800381E+000	-1.18157530E+002	
-8.26729050E+000	-1.18144380E+002	
-8.24657720E+000	-1.18142964E+002	
-8.22586389E+000	-1.18122381E+002	
-8.20515059E+000	-1.18162239E+002	
-8.18443728E+000	-1.18159720E+002	
-8.16372397E+000	-1.18147697E+002	
-8.14301067E+000	-1.18107628E+002	
-8.12229736E+000	-1.18118274E+002	
-8.10158406E+000	-1.18112544E+002	
-8.08087075E+000	-1.18104804E+002	
-8.06015745E+000	-1.18081041E+002	
-8.03944414E+000	-1.18025002E+002	
-8.01873084E+000	-1.18036149E+002	
-7.99801753E+000	-1.18017423E+002	
-7.97730423E+000	-1.18011068E+002	
-7.95659092E+000	-1.17979173E+002	
-7.93587762E+000	-1.17986083E+002	
-7.91516431E+000	-1.18028282E+002	
-7.89445101E+000	-1.18023682E+002	
-7.87373770E+000	-1.17998889E+002	
-7.85302439E+000	-1.17990242E+002	
-7.83231109E+000	-1.17975578E+002	
-7.81159778E+000	-1.18031141E+002	
-7.79088448E+000	-1.18053987E+002	
-7.77017117E+000	-1.18071843E+002	
-7.74945787E+000	-1.18089728E+002	
-7.72874456E+000	-1.18105784E+002	
-7.70803126E+000	-1.18071501E+002	
-7.68731795E+000	-1.18108155E+002	
-7.66660465E+000	-1.18105201E+002	
-7.64589134E+000	-1.18103574E+002	
-7.62517804E+000	-1.18089352E+002	
-7.60446473E+000	-1.18029863E+002	
-7.58375143E+000	-1.18052106E+002	
-7.56303812E+000	-1.18086092E+002	
-7.54232482E+000	-1.18152640E+002	
-7.52161151E+000	-1.18140119E+002	
-7.50089820E+000	-1.18151337E+002	
-7.48018490E+000	-1.18119040E+002	
-7.45947159E+000	-1.18160963E+002	
-7.43875829E+000	-1.18097432E+002	
-7.41804498E+000	-1.18005174E+002	
-7.39733168E+000	-1.18056710E+002	
-7.37661837E+000	-1.18072122E+002	
-7.35590507E+000	-1.18082352E+002	
-7.33519176E+000	-1.18100064E+002	
-7.31447846E+000	-1.18111007E+002	
-7.29376515E+000	-1.18085696E+002	
-7.27305185E+000	-1.18050893E+002	
-7.25233854E+000	-1.18076275E+002	
-7.23162524E+000	-1.18090305E+002	
-7.21091193E+000	-1.18085661E+002	
-7.19019862E+000	-1.18082677E+002	
-7.16948532E+000	-1.18129921E+002	
-7.14877201E+000	-1.18197304E+002	
-7.12805871E+000	-1.18252839E+002	
-7.10734540E+000	-1.18322083E+002	
-7.08663210E+000	-1.18349225E+002	
-7.06591879E+000	-1.18325280E+002	
-7.04520549E+000	-1.18312500E+002	
-7.02449218E+000	-1.18287649E+002	
-7.00377888E+000	-1.18254324E+002	
-6.98306557E+000	-1.18293434E+002	
-6.96235227E+000	-1.18253662E+002	
-6.94163896E+000	-1.18273634E+002	
-6.92092566E+000	-1.18344617E+002	
-6.90021235E+000	-1.18330923E+002	
-6.87949904E+000	-1.18302262E+002	
-6.85878574E+000	-1.18286697E+002	
-6.83807243E+000	-1.18309453E+002	
-6.81735913E+000	-1.18328557E+002	
-6.79664582E+000	-1.18287179E+002	
-6.77593252E+000	-1.18331994E+002	
-6.75521921E+000	-1.18290069E+002	
-6.73450591E+000	-1.18277792E+002	
-6.71379260E+000	-1.18250194E+002	
-6.69307930E+000	-1.18246682E+002	
-6.67236599E+000	-1.18195546E+002	
-6.65165269E+000	-1.18172696E+002	
-6.63093938E+000	-1.18195102E+002	
-6.61022608E+000	-1.18214335E+002	
-6.58951277E+000	-1.18209694E+002	
-6.56879947E+000	-1.18205146E+002	
-6.54808616E+000	-1.18191631E+002	
-6.52737285E+000	-1.18170146E+002	
-6.50665955E+000	-1.18197615E+002	
-6.48594624E+000	-1.18241708E+002	
-6.46523294E+000	-1.18286695E+002	
-6.44451963E+000	-1.18221867E+002	
-6.42380633E+000	-1.18184477E+002	
-6.40309302E+000	-1.18192224E+002	
-6.38237972E+000	-1.18160919E+002	
-6.36166641E+000	-1.18151724E+002	
-6.34095311E+000	-1.18149854E+002	
-6.32023980E+000	-1.18137510E+002	
-6.29952650E+000	-1.18140490E+002	
-6.27881319E+000	-1.18110934E+002	
-6.25809989E+000	-1.18121030E+002	
-6.23738658E+000	-1.18112707E+002	
-6.21667327E+000	-1.18102570E+002	
-6.19595997E+000	-1.18113359E+002	
-6.17524666E+000	-1.18110682E+002	
-6.15453336E+000	-1.18110170E+002	
-6.13382005E+000	-1.18086177E+002	
-6.11310675E+000	-1.18085389E+002	
-6.09239344E+000	-1.18078944E+002	
-6.07168014E+000	-1.18028301E+002	
-6.05096683E+000	-1.18097490E+002	
-6.03025353E+000	-1.18124418E+002	
-6.00954022E+000	-1.18114029E+002	
-5.98882692E+000	-1.18066246E+002	
-5.96811361E+000	-1.18067451E+002	
-5.94740031E+000	-1.18124089E+002	
-5.92668700E+000	-1.18168949E+002	
-5.90597369E+000	-1.18175004E+002	
-5.88526039E+000	-1.18228019E+002	
-5.86454708E+000	-1.18257417E+002	
-5.84383378E+000	-1.18222803E+002	
-5.82312047E+000	-1.18246831E+002	
-5.80240717E+000	-1.18225902E+002	
-5.78169386E+000	-1.18241516E+002	
-5.76098056E+000	-1.18241638E+002	
-5.74026725E+000	-1.18241226E+002	
-5.71955395E+000	-1.18274750E+002	
-5.69884064E+000	-1.18280957E+002	
-5.67812734E+000	-1.18305054E+002	
-5.65741403E+000	-1.18296179E+002	
-5.63670073E+000	-1.18296559E+002	
-5.61598742E+000	-1.18268116E+002	
-5.59527412E+000	-1.18237431E+002	
-5.57456081E+000	-1.18303468E+002	
-5.55384750E+000	-1.18217948E+002	
-5.53313420E+000	-1.18140929E+002	
-5.51242089E+000	-1.18139872E+002	
-5.49170759E+000	-1.18128592E+002	
-5.47099428E+000	-1.18100244E+002	
-5.45028098E+000	-1.18144521E+002	
-5.42956767E+000	-1.18179489E+002	
-5.40885437E+000	-1.18161665E+002	
-5.38814106E+000	-1.18146195E+002	
-5.36742776E+000	-1.18112547E+002	
-5.34671445E+000	-1.18140980E+002	
-5.32600115E+000	-1.18135739E+002	
-5.30528784E+000	-1.18148414E+002	
-5.28457454E+000	-1.18121473E+002	
-5.26386123E+000	-1.18113613E+002	
-5.24314792E+000	-1.18066325E+002	
-5.22243462E+000	-1.18045007E+002	
-5.20172131E+000	-1.18044973E+002	
-5.18100801E+000	-1.18001756E+002	
-5.16029470E+000	-1.17996333E+002	
-5.13958140E+000	-1.17963155E+002	
-5.11886809E+000	-1.17946201E+002	
-5.09815479E+000	-1.17955907E+002	
-5.07744148E+000	-1.17919027E+002	
-5.05672818E+000	-1.17974919E+002	
-5.03601487E+000	-1.17993440E+002	
-5.01530157E+000	-1.18034475E+002	
-4.99458826E+000	-1.18053438E+002	
-4.97387496E+000	-1.18008271E+002	
-4.95316165E+000	-1.18003530E+002	
-4.93244834E+000	-1.17970086E+002	
-4.91173504E+000	-1.17958211E+002	
-4.89102173E+000	-1.17952440E+002	
-4.87030843E+000	-1.17998352E+002	
-4.84959512E+000	-1.17991531E+002	
-4.82888182E+000	-1.17956252E+002	
-4.80816851E+000	-1.17949343E+002	
-4.78745521E+000	-1.17968978E+002	
-4.76674190E+000	-1.18000986E+002	
-4.74602860E+000	-1.18012222E+002	
-4.72531529E+000	-1.18050883E+002	
-4.70460199E+000	-1.18042308E+002	
-4.68388868E+000	-1.18089868E+002	
-4.66317538E+000	-1.18083889E+002	
-4.64246207E+000	-1.18120676E+002	
-4.62174877E+000	-1.18161125E+002	
-4.60103546E+000	-1.18202565E+002	
-4.58032215E+000	-1.18226364E+002	
-4.55960885E+000	-1.18206108E+002	
-4.53889554E+000	-1.18237282E+002	
-4.51818224E+000	-1.18165909E+002	
-4.49746893E+000	-1.18119713E+002	
-4.47675563E+000	-1.18168509E+002	
-4.45604232E+000	-1.18155469E+002	
-4.43532902E+000	-1.18145779E+002	
-4.41461571E+000	-1.18130904E+002	
-4.39390241E+000	-1.18155389E+002	
-4.37318910E+000	-1.18162116E+002	
-4.35247580E+000	-1.18141516E+002	
-4.33176249E+000	-1.18136253E+002	
-4.31104919E+000	-1.18132149E+002	
-4.29033588E+000	-1.18124475E+002	
-4.26962257E+000	-1.18118760E+002	
-4.24890927E+000	-1.18165412E+002	
-4.22819596E+000	-1.18182627E+002	
-4.20748266E+000	-1.18221887E+002	
-4.18676935E+000	-1.18178940E+002	
-4.16605605E+000	-1.18192258E+002	
-4.14534274E+000	-1.18217173E+002	
-4.12462944E+000	-1.18181665E+002	
-4.10391613E+000	-1.18169677E+002	
-4.08320283E+000	-1.18158375E+002	
-4.06248952E+000	-1.18151943E+002	
-4.04177622E+000	-1.18115994E+002	
-4.02106291E+000	-1.18157676E+002	
-4.00034961E+000	-1.18168006E+002	
-3.97963630E+000	-1.18137587E+002	
-3.95892299E+000	-1.18152964E+002	
-3.93820969E+000	-1.18133875E+002	
-3.91749638E+000	-1.18159517E+002	
-3.89678308E+000	-1.18126994E+002	
-3.87606977E+000	-1.18057581E+002	
-3.85535647E+000	-1.18059210E+002	
-3.83464316E+000	-1.18056255E+002	
-3.81392986E+000	-1.18048769E+002	
-3.79321655E+000	-1.18075442E+002	
-3.77250325E+000	-1.18003900E+002	
-3.75178994E+000	-1.18000241E+002	
-3.73107664E+000	-1.18006839E+002	
-3.71036333E+000	-1.17942636E+002	
-3.68965003E+000	-1.17964252E+002	
-3.66893672E+000	-1.18008225E+002	
-3.64822342E+000	-1.17966987E+002	
-3.62751011E+000	-1.17975011E+002	
-3.60679680E+000	-1.17973166E+002	
-3.58608350E+000	-1.17979142E+002	
-3.56537019E+000	-1.18004028E+002	
-3.54465689E+000	-1.18019201E+002	
-3.52394358E+000	-1.18041838E+002	
-3.50323028E+000	-1.18081786E+002	
-3.48251697E+000	-1.18112720E+002	
-3.46180367E+000	-1.18136301E+002	
-3.44109036E+000	-1.18152415E+002	
-3.42037706E+000	-1.18188981E+002	
-3.39966375E+000	-1.18222886E+002	
-3.37895045E+000	-1.18268002E+002	
-3.35823714E+000	-1.18260013E+002	
-3.33752384E+000	-1.18265826E+002	
-3.31681053E+000	-1.18279474E+002	
-3.29609722E+000	-1.18253088E+002	
-3.27538392E+000	-1.18267468E+002	
-3.25467061E+000	-1.18276635E+002	
-3.23395731E+000	-1.18257998E+002	
-3.21324400E+000	-1.18281239E+002	
-3.19253070E+000	-1.18279370E+002	
-3.17181739E+000	-1.18256940E+002	
-3.15110409E+000	-1.18231895E+002	
-3.13039078E+000	-1.18221321E+002	
-3.10967748E+000	-1.18261251E+002	
-3.08896417E+000	-1.18241521E+002	
-3.06825087E+000	-1.18224243E+002	
-3.04753756E+000	-1.18228985E+002	
-3.02682426E+000	-1.18194340E+002	
-3.00611095E+000	-1.18113649E+002	
-2.98539764E+000	-1.18152005E+002	
-2.96468434E+000	-1.18114137E+002	
-2.94397103E+000	-1.18084346E+002	
-2.92325773E+000	-1.18042622E+002	
-2.90254442E+000	-1.18037179E+002	
-2.88183112E+000	-1.18050651E+002	
-2.86111781E+000	-1.18090192E+002	
-2.84040451E+000	-1.18129725E+002	
-2.81969120E+000	-1.18161781E+002	
-2.79897790E+000	-1.18221673E+002	
-2.77826459E+000	-1.18185792E+002	
-2.75755129E+000	-1.18163200E+002	
-2.73683798E+000	-1.18176990E+002	
-2.71612468E+000	-1.18135395E+002	
-2.69541137E+000	-1.18119177E+002	
-2.67469807E+000	-1.18171743E+002	
-2.65398476E+000	-1.18194970E+002	
-2.63327145E+000	-1.18195540E+002	
-2.61255815E+000	-1.18140562E+002	
-2.59184484E+000	-1.18139496E+002	
-2.57113154E+000	-1.18132194E+002	
-2.55041823E+000	-1.18140711E+002	
-2.52970493E+000	-1.18195779E+002	
-2.50899162E+000	-1.18267373E+002	
-2.48827832E+000	-1.18246771E+002	
-2.46756501E+000	-1.18248757E+002	
-2.44685171E+000	-1.18256336E+002	
-2.42613840E+000	-1.18276187E+002	
-2.40542510E+000	-1.18290534E+002	
-2.38471179E+000	-1.18266261E+002	
-2.36399849E+000	-1.18248585E+002	
-2.34328518E+000	-1.18201639E+002	
-2.32257187E+000	-1.18147740E+002	
-2.30185857E+000	-1.18075156E+002	
-2.28114526E+000	-1.18094809E+002	
-2.26043196E+000	-1.18168406E+002	
-2.23971865E+000	-1.18159130E+002	
-2.21900535E+000	-1.18213133E+002	
-2.19829204E+000	-1.18234204E+002	
-2.17757874E+000	-1.18199348E+002	
-2.15686543E+000	-1.18184630E+002	
-2.13615213E+000	-1.18233441E+002	
-2.11543882E+000	-1.18230272E+002	
-2.09472552E+000	-1.18244633E+002	
-2.07401221E+000	-1.18218787E+002	
-2.05329891E+000	-1.18166428E+002	
-2.03258560E+000	-1.18174345E+002	
-2.01187229E+000	-1.18169031E+002	
-1.99115899E+000	-1.18176447E+002	
-1.97044568E+000	-1.18109189E+002	
-1.94973238E+000	-1.18121475E+002	
-1.92901907E+000	-1.18101977E+002	
-1.90830577E+000	-1.18054741E+002	
-1.88759246E+000	-1.18049320E+002	
-1.86687916E+000	-1.18081492E+002	
-1.84616585E+000	-1.18051495E+002	
-1.82545255E+000	-1.18129653E+002	
-1.80473924E+000	-1.18140566E+002	
-1.78402594E+000	-1.18184857E+002	
-1.76331263E+000	-1.18189771E+002	
-1.74259933E+000	-1.18139071E+002	
-1.72188602E+000	-1.18130073E+002	
-1.70117272E+000	-1.18201996E+002	
-1.68045941E+000	-1.18227368E+002	
-1.65974610E+000	-1.18183908E+002	
-1.63903280E+000	-1.18146340E+002	
-1.61831949E+000	-1.18206502E+002	
-1.59760619E+000	-1.18219173E+002	
-1.57689288E+000	-1.18226977E+002	
-1.55617958E+000	-1.18282470E+002	
-1.53546627E+000	-1.18264724E+002	
-1.51475297E+000	-1.18271430E+002	
-1.49403966E+000	-1.18251305E+002	
-1.47332636E+000	-1.18299415E+002	
-1.45261305E+000	-1.18270226E+002	
-1.43189975E+000	-1.18273951E+002	
-1.41118644E+000	-1.18271249E+002	
-1.39047314E+000	-1.18301823E+002	
-1.36975983E+000	-1.18263797E+002	
-1.34904652E+000	-1.18262607E+002	
-1.32833322E+000	-1.18216923E+002	
-1.30761991E+000	-1.18166357E+002	
-1.28690661E+000	-1.18166980E+002	
-1.26619330E+000	-1.18152919E+002	
-1.24548000E+000	-1.18200715E+002	
-1.22476669E+000	-1.18232215E+002	
-1.20405339E+000	-1.18133937E+002	
-1.18334008E+000	-1.18121694E+002	
-1.16262678E+000	-1.18191137E+002	
-1.14191347E+000	-1.18223004E+002	
-1.12120017E+000	-1.18218640E+002	
-1.10048686E+000	-1.18196526E+002	
-1.07977356E+000	-1.18208169E+002	
-1.05906025E+000	-1.18247127E+002	
-1.03834694E+000	-1.18228150E+002	
-1.01763364E+000	-1.18163807E+002	
-9.96920334E-001	-1.18073999E+002	
-9.76207029E-001	-1.18032378E+002	
-9.55493724E-001	-1.18050868E+002	
-9.34780418E-001	-1.18060116E+002	
-9.14067113E-001	-1.18097692E+002	
-8.93353808E-001	-1.18083604E+002	
-8.72640502E-001	-1.18068836E+002	
-8.51927197E-001	-1.18102498E+002	
-8.31213892E-001	-1.18127572E+002	
-8.10500586E-001	-1.18191866E+002	
-7.89787281E-001	-1.18210492E+002	
-7.69073976E-001	-1.18221916E+002	
-7.48360671E-001	-1.18209061E+002	
-7.27647365E-001	-1.18201361E+002	
-7.06934060E-001	-1.18227390E+002	
-6.86220755E-001	-1.18253027E+002	
-6.65507449E-001	-1.18279497E+002	
-6.44794144E-001	-1.18269422E+002	
-6.24080839E-001	-1.18236098E+002	
-6.03367533E-001	-1.18233641E+002	
-5.82654228E-001	-1.18202488E+002	
-5.61940923E-001	-1.18155772E+002	
-5.41227617E-001	-1.18118401E+002	
-5.20514312E-001	-1.18143294E+002	
-4.99801007E-001	-1.18239661E+002	
-4.79087701E-001	-1.18320674E+002	
-4.58374396E-001	-1.18350430E+002	
-4.37661091E-001	-1.18320905E+002	
-4.16947785E-001	-1.18305435E+002	
-3.96234480E-001	-1.18311511E+002	
-3.75521175E-001	-1.18312024E+002	
-3.54807869E-001	-1.18319240E+002	
-3.34094564E-001	-1.18333180E+002	
-3.13381259E-001	-1.18348178E+002	
-2.92667954E-001	-1.18342145E+002	
-2.71954648E-001	-1.18312876E+002	
-2.51241343E-001	-1.08101810E+002	
-2.30528038E-001	-1.07749563E+002	
-2.09814732E-001	-1.07748295E+002	
-1.89101427E-001	-1.07740210E+002	
-1.68388122E-001	-1.07729049E+002	
-1.47674816E-001	-1.07725344E+002	
-1.26961511E-001	-1.07724246E+002	
-1.06248206E-001	-1.07713046E+002	
-8.55349003E-002	-1.07711603E+002	
-6.48215950E-002	-1.07709671E+002	
-4.41082897E-002	-1.07712128E+002	
-2.33949844E-002	-1.07709482E+002	
-2.68167905E-003	-1.07707067E+002	
1.80316263E-002	-1.07699788E+002	
3.87449316E-002	-1.07694679E+002	
5.94582369E-002	-1.07693938E+002	
8.01715422E-002	-1.07696336E+002	
1.00884848E-001	-1.07694820E+002	
1.21598153E-001	-1.07688152E+002	
1.42311458E-001	-1.07683609E+002	
1.63024763E-001	-1.07681196E+002	
1.83738069E-001	-1.07675545E+002	
2.04451374E-001	-1.07668016E+002	
2.25164679E-001	-1.07668283E+002	
2.45877985E-001	-1.12709089E+002	
2.66591290E-001	-1.17483177E+002	
2.87304595E-001	-1.17483142E+002	
3.08017901E-001	-1.17540967E+002	
3.28731206E-001	-1.17581697E+002	
3.49444511E-001	-1.17592802E+002	
3.70157817E-001	-1.17620348E+002	
3.90871122E-001	-1.17703330E+002	
4.11584427E-001	-1.17672129E+002	
4.32297733E-001	-1.17649375E+002	
4.53011038E-001	-1.17654659E+002	
4.73724343E-001	-1.17682270E+002	
4.94437649E-001	-1.17681400E+002	
5.15150954E-001	-1.17711289E+002	
5.35864259E-001	-1.17709474E+002	
5.56577565E-001	-1.17756395E+002	
5.77290870E-001	-1.17691902E+002	
5.98004175E-001	-1.17663742E+002	
6.18717481E-001	-1.17700367E+002	
6.39430786E-001	-1.17728965E+002	
6.60144091E-001	-1.17707550E+002	
6.80857396E-001	-1.17746289E+002	
7.01570702E-001	-1.17767940E+002	
7.22284007E-001	-1.17770785E+002	
7.42997312E-001	-1.17739711E+002	
7.63710618E-001	-1.17725434E+002	
7.84423923E-001	-1.17699068E+002	
8.05137228E-001	-1.17671434E+002	
8.25850534E-001	-1.17659983E+002	
8.46563839E-001	-1.17632635E+002	
8.67277144E-001	-1.17612653E+002	
8.87990450E-001	-1.17598458E+002	
9.08703755E-001	-1.17688781E+002	
9.29417060E-001	-1.17749494E+002	
9.50130366E-001	-1.17766246E+002	
9.70843671E-001	-1.17711182E+002	
9.91556976E-001	-1.17702451E+002	
1.01227028E+000	-1.17716263E+002	
1.03298359E+000	-1.17722581E+002	
1.05369689E+000	-1.17692541E+002	
1.07441020E+000	-1.17715180E+002	
1.09512350E+000	-1.17722358E+002	
1.11583681E+000	-1.17779061E+002	
1.13655011E+000	-1.17770605E+002	
1.15726342E+000	-1.17760812E+002	
1.17797672E+000	-1.17722542E+002	
1.19869003E+000	-1.17771968E+002	
1.21940333E+000	-1.17751069E+002	
1.24011664E+000	-1.17764098E+002	
1.26082995E+000	-1.17744863E+002	
1.28154325E+000	-1.17756910E+002	
1.30225656E+000	-1.17756969E+002	
1.32296986E+000	-1.17753562E+002	
1.34368317E+000	-1.17774760E+002	
1.36439647E+000	-1.17833754E+002	
1.38510978E+000	-1.17826534E+002	
1.40582308E+000	-1.17769036E+002	
1.42653639E+000	-1.17745191E+002	
1.44724969E+000	-1.17711741E+002	
1.46796300E+000	-1.17723334E+002	
1.48867630E+000	-1.17745233E+002	
1.50938961E+000	-1.17755987E+002	
1.53010291E+000	-1.17762900E+002	
1.55081622E+000	-1.17774393E+002	
1.57152953E+000	-1.17787816E+002	
1.59224283E+000	-1.17758379E+002	
1.61295614E+000	-1.17712929E+002	
1.63366944E+000	-1.17662591E+002	
1.65438275E+000	-1.17651014E+002	
1.67509605E+000	-1.17655904E+002	
1.69580936E+000	-1.17594437E+002	
1.71652266E+000	-1.17610370E+002	
1.73723597E+000	-1.17562587E+002	
1.75794927E+000	-1.17539636E+002	
1.77866258E+000	-1.17558165E+002	
1.79937588E+000	-1.17584461E+002	
1.82008919E+000	-1.17624093E+002	
1.84080249E+000	-1.17634223E+002	
