Time (ns)	Amplitude (dB)	
-1.00072081E+001	-1.20502866E+002	
-9.98649484E+000	-1.20169399E+002	
-9.96578154E+000	-1.19818098E+002	
-9.94506823E+000	-1.19559359E+002	
-9.92435493E+000	-1.19329663E+002	
-9.90364162E+000	-1.19089188E+002	
-9.88292832E+000	-1.18873487E+002	
-9.86221501E+000	-1.18660906E+002	
-9.84150171E+000	-1.18460613E+002	
-9.82078840E+000	-1.18280963E+002	
-9.80007509E+000	-1.18080341E+002	
-9.77936179E+000	-1.17885558E+002	
-9.75864848E+000	-1.17827152E+002	
-9.73793518E+000	-1.17841899E+002	
-9.71722187E+000	-1.17837827E+002	
-9.69650857E+000	-1.17842280E+002	
-9.67579526E+000	-1.17903336E+002	
-9.65508196E+000	-1.17890674E+002	
-9.63436865E+000	-1.17835059E+002	
-9.61365535E+000	-1.17837645E+002	
-9.59294204E+000	-1.17865938E+002	
-9.57222874E+000	-1.17891693E+002	
-9.55151543E+000	-1.17909463E+002	
-9.53080213E+000	-1.17902214E+002	
-9.51008882E+000	-1.17929694E+002	
-9.48937552E+000	-1.17954926E+002	
-9.46866221E+000	-1.17951549E+002	
-9.44794890E+000	-1.17919002E+002	
-9.42723560E+000	-1.17871560E+002	
-9.40652229E+000	-1.17865133E+002	
-9.38580899E+000	-1.17844858E+002	
-9.36509568E+000	-1.17836880E+002	
-9.34438238E+000	-1.17806668E+002	
-9.32366907E+000	-1.17778681E+002	
-9.30295577E+000	-1.17777354E+002	
-9.28224246E+000	-1.17789281E+002	
-9.26152916E+000	-1.17739122E+002	
-9.24081585E+000	-1.17679859E+002	
-9.22010255E+000	-1.17668608E+002	
-9.19938924E+000	-1.17704208E+002	
-9.17867594E+000	-1.17685146E+002	
-9.15796263E+000	-1.17686375E+002	
-9.13724932E+000	-1.17744278E+002	
-9.11653602E+000	-1.17748877E+002	
-9.09582271E+000	-1.17702862E+002	
-9.07510941E+000	-1.17709630E+002	
-9.05439610E+000	-1.17710590E+002	
-9.03368280E+000	-1.17583576E+002	
-9.01296949E+000	-1.17574300E+002	
-8.99225619E+000	-1.17577342E+002	
-8.97154288E+000	-1.17628092E+002	
-8.95082958E+000	-1.17642107E+002	
-8.93011627E+000	-1.17669122E+002	
-8.90940297E+000	-1.17694229E+002	
-8.88868966E+000	-1.17713099E+002	
-8.86797636E+000	-1.17705370E+002	
-8.84726305E+000	-1.17716490E+002	
-8.82654974E+000	-1.17700074E+002	
-8.80583644E+000	-1.17714633E+002	
-8.78512313E+000	-1.17719198E+002	
-8.76440983E+000	-1.17737873E+002	
-8.74369652E+000	-1.17803084E+002	
-8.72298322E+000	-1.17818573E+002	
-8.70226991E+000	-1.17751402E+002	
-8.68155661E+000	-1.17723536E+002	
-8.66084330E+000	-1.17755526E+002	
-8.64013000E+000	-1.17728504E+002	
-8.61941669E+000	-1.17687598E+002	
-8.59870339E+000	-1.17733820E+002	
-8.57799008E+000	-1.17735497E+002	
-8.55727678E+000	-1.17698904E+002	
-8.53656347E+000	-1.17822813E+002	
-8.51585017E+000	-1.17845309E+002	
-8.49513686E+000	-1.17855400E+002	
-8.47442355E+000	-1.17844969E+002	
-8.45371025E+000	-1.17880104E+002	
-8.43299694E+000	-1.17918540E+002	
-8.41228364E+000	-1.17883443E+002	
-8.39157033E+000	-1.17864792E+002	
-8.37085703E+000	-1.17916233E+002	
-8.35014372E+000	-1.17931674E+002	
-8.32943042E+000	-1.17952882E+002	
-8.30871711E+000	-1.17904571E+002	
-8.28800381E+000	-1.17938281E+002	
-8.26729050E+000	-1.17918919E+002	
-8.24657720E+000	-1.17911330E+002	
-8.22586389E+000	-1.17890996E+002	
-8.20515059E+000	-1.17937934E+002	
-8.18443728E+000	-1.17935374E+002	
-8.16372397E+000	-1.17924764E+002	
-8.14301067E+000	-1.17874162E+002	
-8.12229736E+000	-1.17889393E+002	
-8.10158406E+000	-1.17881567E+002	
-8.08087075E+000	-1.17869043E+002	
-8.06015745E+000	-1.17851202E+002	
-8.03944414E+000	-1.17793313E+002	
-8.01873084E+000	-1.17806710E+002	
-7.99801753E+000	-1.17787906E+002	
-7.97730423E+000	-1.17778505E+002	
-7.95659092E+000	-1.17742405E+002	
-7.93587762E+000	-1.17753490E+002	
-7.91516431E+000	-1.17790209E+002	
-7.89445101E+000	-1.17784158E+002	
-7.87373770E+000	-1.17756791E+002	
-7.85302439E+000	-1.17755128E+002	
-7.83231109E+000	-1.17742019E+002	
-7.81159778E+000	-1.17806121E+002	
-7.79088448E+000	-1.17830998E+002	
-7.77017117E+000	-1.17860465E+002	
-7.74945787E+000	-1.17875716E+002	
-7.72874456E+000	-1.17890590E+002	
-7.70803126E+000	-1.17850414E+002	
-7.68731795E+000	-1.17882712E+002	
-7.66660465E+000	-1.17872174E+002	
-7.64589134E+000	-1.17872262E+002	
-7.62517804E+000	-1.17851408E+002	
-7.60446473E+000	-1.17788537E+002	
-7.58375143E+000	-1.17807818E+002	
-7.56303812E+000	-1.17837492E+002	
-7.54232482E+000	-1.17899227E+002	
-7.52161151E+000	-1.17884952E+002	
-7.50089820E+000	-1.17900352E+002	
-7.48018490E+000	-1.17872566E+002	
-7.45947159E+000	-1.17918209E+002	
-7.43875829E+000	-1.17849916E+002	
-7.41804498E+000	-1.17760050E+002	
-7.39733168E+000	-1.17810100E+002	
-7.37661837E+000	-1.17821359E+002	
-7.35590507E+000	-1.17824706E+002	
-7.33519176E+000	-1.17839876E+002	
-7.31447846E+000	-1.17849259E+002	
-7.29376515E+000	-1.17821309E+002	
-7.27305185E+000	-1.17788564E+002	
-7.25233854E+000	-1.17817472E+002	
-7.23162524E+000	-1.17827135E+002	
-7.21091193E+000	-1.17821060E+002	
-7.19019862E+000	-1.17822274E+002	
-7.16948532E+000	-1.17871015E+002	
-7.14877201E+000	-1.17944765E+002	
-7.12805871E+000	-1.18002112E+002	
-7.10734540E+000	-1.18079020E+002	
-7.08663210E+000	-1.18112130E+002	
-7.06591879E+000	-1.18092797E+002	
-7.04520549E+000	-1.18085203E+002	
-7.02449218E+000	-1.18063744E+002	
-7.00377888E+000	-1.18027553E+002	
-6.98306557E+000	-1.18067596E+002	
-6.96235227E+000	-1.18028503E+002	
-6.94163896E+000	-1.18055170E+002	
-6.92092566E+000	-1.18125682E+002	
-6.90021235E+000	-1.18113323E+002	
-6.87949904E+000	-1.18083523E+002	
-6.85878574E+000	-1.18067917E+002	
-6.83807243E+000	-1.18093436E+002	
-6.81735913E+000	-1.18108597E+002	
-6.79664582E+000	-1.18066848E+002	
-6.77593252E+000	-1.18107363E+002	
-6.75521921E+000	-1.18063690E+002	
-6.73450591E+000	-1.18057221E+002	
-6.71379260E+000	-1.18030494E+002	
-6.69307930E+000	-1.18027133E+002	
-6.67236599E+000	-1.17977784E+002	
-6.65165269E+000	-1.17954915E+002	
-6.63093938E+000	-1.17976781E+002	
-6.61022608E+000	-1.18002772E+002	
-6.58951277E+000	-1.18001384E+002	
-6.56879947E+000	-1.17990372E+002	
-6.54808616E+000	-1.17976472E+002	
-6.52737285E+000	-1.17956425E+002	
-6.50665955E+000	-1.17984274E+002	
-6.48594624E+000	-1.18030231E+002	
-6.46523294E+000	-1.18068900E+002	
-6.44451963E+000	-1.17999816E+002	
-6.42380633E+000	-1.17963993E+002	
-6.40309302E+000	-1.17964067E+002	
-6.38237972E+000	-1.17932374E+002	
-6.36166641E+000	-1.17933037E+002	
-6.34095311E+000	-1.17936546E+002	
-6.32023980E+000	-1.17925269E+002	
-6.29952650E+000	-1.17932972E+002	
-6.27881319E+000	-1.17907134E+002	
-6.25809989E+000	-1.17914942E+002	
-6.23738658E+000	-1.17900056E+002	
-6.21667327E+000	-1.17883501E+002	
-6.19595997E+000	-1.17897765E+002	
-6.17524666E+000	-1.17893625E+002	
-6.15453336E+000	-1.17892485E+002	
-6.13382005E+000	-1.17871580E+002	
-6.11310675E+000	-1.17872374E+002	
-6.09239344E+000	-1.17861394E+002	
-6.07168014E+000	-1.17812582E+002	
-6.05096683E+000	-1.17881635E+002	
-6.03025353E+000	-1.17895036E+002	
-6.00954022E+000	-1.17880380E+002	
-5.98882692E+000	-1.17829681E+002	
-5.96811361E+000	-1.17838500E+002	
-5.94740031E+000	-1.17889148E+002	
-5.92668700E+000	-1.17927020E+002	
-5.90597369E+000	-1.17946928E+002	
-5.88526039E+000	-1.18002372E+002	
-5.86454708E+000	-1.18020413E+002	
-5.84383378E+000	-1.17980964E+002	
-5.82312047E+000	-1.18005830E+002	
-5.80240717E+000	-1.17982764E+002	
-5.78169386E+000	-1.17997517E+002	
-5.76098056E+000	-1.17998862E+002	
-5.74026725E+000	-1.18006218E+002	
-5.71955395E+000	-1.18054938E+002	
-5.69884064E+000	-1.18056162E+002	
-5.67812734E+000	-1.18089072E+002	
-5.65741403E+000	-1.18086237E+002	
-5.63670073E+000	-1.18097177E+002	
-5.61598742E+000	-1.18070538E+002	
-5.59527412E+000	-1.18040391E+002	
-5.57456081E+000	-1.18110051E+002	
-5.55384750E+000	-1.18017926E+002	
-5.53313420E+000	-1.17948456E+002	
-5.51242089E+000	-1.17965792E+002	
-5.49170759E+000	-1.17962184E+002	
-5.47099428E+000	-1.17938626E+002	
-5.45028098E+000	-1.17994080E+002	
-5.42956767E+000	-1.18035821E+002	
-5.40885437E+000	-1.18017696E+002	
-5.38814106E+000	-1.18004020E+002	
-5.36742776E+000	-1.17984094E+002	
-5.34671445E+000	-1.18020115E+002	
-5.32600115E+000	-1.18010775E+002	
-5.30528784E+000	-1.18030079E+002	
-5.28457454E+000	-1.18004187E+002	
-5.26386123E+000	-1.17993006E+002	
-5.24314792E+000	-1.17934105E+002	
-5.22243462E+000	-1.17899706E+002	
-5.20172131E+000	-1.17898160E+002	
-5.18100801E+000	-1.17849925E+002	
-5.16029470E+000	-1.17840541E+002	
-5.13958140E+000	-1.17798351E+002	
-5.11886809E+000	-1.17773495E+002	
-5.09815479E+000	-1.17782591E+002	
-5.07744148E+000	-1.17741880E+002	
-5.05672818E+000	-1.17810491E+002	
-5.03601487E+000	-1.17827169E+002	
-5.01530157E+000	-1.17857456E+002	
-4.99458826E+000	-1.17869471E+002	
-4.97387496E+000	-1.17814683E+002	
-4.95316165E+000	-1.17809291E+002	
-4.93244834E+000	-1.17769960E+002	
-4.91173504E+000	-1.17755148E+002	
-4.89102173E+000	-1.17749908E+002	
-4.87030843E+000	-1.17785630E+002	
-4.84959512E+000	-1.17769396E+002	
-4.82888182E+000	-1.17730790E+002	
-4.80816851E+000	-1.17717311E+002	
-4.78745521E+000	-1.17729133E+002	
-4.76674190E+000	-1.17755265E+002	
-4.74602860E+000	-1.17780764E+002	
-4.72531529E+000	-1.17825600E+002	
-4.70460199E+000	-1.17812543E+002	
-4.68388868E+000	-1.17860928E+002	
-4.66317538E+000	-1.17854418E+002	
-4.64246207E+000	-1.17888120E+002	
-4.62174877E+000	-1.17928457E+002	
-4.60103546E+000	-1.17968329E+002	
-4.58032215E+000	-1.17990722E+002	
-4.55960885E+000	-1.17963997E+002	
-4.53889554E+000	-1.17995310E+002	
-4.51818224E+000	-1.17923862E+002	
-4.49746893E+000	-1.17877094E+002	
-4.47675563E+000	-1.17927205E+002	
-4.45604232E+000	-1.17911116E+002	
-4.43532902E+000	-1.17903181E+002	
-4.41461571E+000	-1.17890083E+002	
-4.39390241E+000	-1.17908512E+002	
-4.37318910E+000	-1.17911433E+002	
-4.35247580E+000	-1.17890863E+002	
-4.33176249E+000	-1.17882365E+002	
-4.31104919E+000	-1.17880575E+002	
-4.29033588E+000	-1.17880408E+002	
-4.26962257E+000	-1.17870977E+002	
-4.24890927E+000	-1.17911879E+002	
-4.22819596E+000	-1.17927919E+002	
-4.20748266E+000	-1.17972403E+002	
-4.18676935E+000	-1.17923824E+002	
-4.16605605E+000	-1.17935147E+002	
-4.14534274E+000	-1.17949908E+002	
-4.12462944E+000	-1.17911447E+002	
-4.10391613E+000	-1.17897084E+002	
-4.08320283E+000	-1.17884627E+002	
-4.06248952E+000	-1.17871939E+002	
-4.04177622E+000	-1.17842210E+002	
-4.02106291E+000	-1.17878687E+002	
-4.00034961E+000	-1.17886507E+002	
-3.97963630E+000	-1.17852961E+002	
-3.95892299E+000	-1.17869323E+002	
-3.93820969E+000	-1.17855776E+002	
-3.91749638E+000	-1.17877086E+002	
-3.89678308E+000	-1.17842424E+002	
-3.87606977E+000	-1.17765887E+002	
-3.85535647E+000	-1.17769517E+002	
-3.83464316E+000	-1.17767447E+002	
-3.81392986E+000	-1.17767140E+002	
-3.79321655E+000	-1.17793609E+002	
-3.77250325E+000	-1.17729203E+002	
-3.75178994E+000	-1.17729587E+002	
-3.73107664E+000	-1.17733948E+002	
-3.71036333E+000	-1.17664086E+002	
-3.68965003E+000	-1.17693923E+002	
-3.66893672E+000	-1.17739022E+002	
-3.64822342E+000	-1.17707492E+002	
-3.62751011E+000	-1.17719854E+002	
-3.60679680E+000	-1.17718121E+002	
-3.58608350E+000	-1.17722968E+002	
-3.56537019E+000	-1.17748795E+002	
-3.54465689E+000	-1.17760736E+002	
-3.52394358E+000	-1.17790181E+002	
-3.50323028E+000	-1.17830979E+002	
-3.48251697E+000	-1.17864962E+002	
-3.46180367E+000	-1.17883872E+002	
-3.44109036E+000	-1.17894944E+002	
-3.42037706E+000	-1.17922375E+002	
-3.39966375E+000	-1.17955861E+002	
-3.37895045E+000	-1.18002911E+002	
-3.35823714E+000	-1.17995570E+002	
-3.33752384E+000	-1.18000844E+002	
-3.31681053E+000	-1.18006226E+002	
-3.29609722E+000	-1.17975910E+002	
-3.27538392E+000	-1.17994276E+002	
-3.25467061E+000	-1.18003873E+002	
-3.23395731E+000	-1.17992545E+002	
-3.21324400E+000	-1.18019371E+002	
-3.19253070E+000	-1.18014026E+002	
-3.17181739E+000	-1.17988227E+002	
-3.15110409E+000	-1.17960171E+002	
-3.13039078E+000	-1.17951426E+002	
-3.10967748E+000	-1.17990328E+002	
-3.08896417E+000	-1.17971472E+002	
-3.06825087E+000	-1.17958971E+002	
-3.04753756E+000	-1.17972045E+002	
-3.02682426E+000	-1.17930123E+002	
-3.00611095E+000	-1.17862426E+002	
-2.98539764E+000	-1.17901976E+002	
-2.96468434E+000	-1.17864574E+002	
-2.94397103E+000	-1.17837088E+002	
-2.92325773E+000	-1.17799277E+002	
-2.90254442E+000	-1.17799994E+002	
-2.88183112E+000	-1.17815346E+002	
-2.86111781E+000	-1.17859050E+002	
-2.84040451E+000	-1.17902624E+002	
-2.81969120E+000	-1.17941790E+002	
-2.79897790E+000	-1.18007405E+002	
-2.77826459E+000	-1.17959936E+002	
-2.75755129E+000	-1.17936143E+002	
-2.73683798E+000	-1.17943356E+002	
-2.71612468E+000	-1.17898039E+002	
-2.69541137E+000	-1.17884855E+002	
-2.67469807E+000	-1.17943261E+002	
-2.65398476E+000	-1.17966324E+002	
-2.63327145E+000	-1.17960860E+002	
-2.61255815E+000	-1.17906014E+002	
-2.59184484E+000	-1.17909552E+002	
-2.57113154E+000	-1.17901191E+002	
-2.55041823E+000	-1.17901645E+002	
-2.52970493E+000	-1.17957788E+002	
-2.50899162E+000	-1.18025345E+002	
-2.48827832E+000	-1.18002704E+002	
-2.46756501E+000	-1.18002971E+002	
-2.44685171E+000	-1.18007279E+002	
-2.42613840E+000	-1.18035769E+002	
-2.40542510E+000	-1.18042913E+002	
-2.38471179E+000	-1.18022328E+002	
-2.36399849E+000	-1.18000965E+002	
-2.34328518E+000	-1.17950433E+002	
-2.32257187E+000	-1.17897314E+002	
-2.30185857E+000	-1.17819866E+002	
-2.28114526E+000	-1.17853311E+002	
-2.26043196E+000	-1.17929856E+002	
-2.23971865E+000	-1.17922428E+002	
-2.21900535E+000	-1.17978000E+002	
-2.19829204E+000	-1.17996657E+002	
-2.17757874E+000	-1.17954630E+002	
-2.15686543E+000	-1.17943397E+002	
-2.13615213E+000	-1.17997531E+002	
-2.11543882E+000	-1.17997949E+002	
-2.09472552E+000	-1.18013174E+002	
-2.07401221E+000	-1.17985630E+002	
-2.05329891E+000	-1.17939720E+002	
-2.03258560E+000	-1.17951828E+002	
-2.01187229E+000	-1.17943198E+002	
-1.99115899E+000	-1.17945962E+002	
-1.97044568E+000	-1.17884592E+002	
-1.94973238E+000	-1.17902689E+002	
-1.92901907E+000	-1.17882381E+002	
-1.90830577E+000	-1.17836828E+002	
-1.88759246E+000	-1.17836240E+002	
-1.86687916E+000	-1.17873034E+002	
-1.84616585E+000	-1.17840063E+002	
-1.82545255E+000	-1.17918462E+002	
-1.80473924E+000	-1.17927278E+002	
-1.78402594E+000	-1.17958629E+002	
-1.76331263E+000	-1.17952655E+002	
-1.74259933E+000	-1.17901989E+002	
-1.72188602E+000	-1.17905019E+002	
-1.70117272E+000	-1.17976819E+002	
-1.68045941E+000	-1.17998797E+002	
-1.65974610E+000	-1.17953149E+002	
-1.63903280E+000	-1.17911642E+002	
-1.61831949E+000	-1.17978607E+002	
-1.59760619E+000	-1.17991131E+002	
-1.57689288E+000	-1.18003837E+002	
-1.55617958E+000	-1.18059664E+002	
-1.53546627E+000	-1.18044489E+002	
-1.51475297E+000	-1.18052833E+002	
-1.49403966E+000	-1.18031619E+002	
-1.47332636E+000	-1.18078612E+002	
-1.45261305E+000	-1.18051075E+002	
-1.43189975E+000	-1.18046988E+002	
-1.41118644E+000	-1.18042115E+002	
-1.39047314E+000	-1.18069970E+002	
-1.36975983E+000	-1.18027382E+002	
-1.34904652E+000	-1.18032737E+002	
-1.32833322E+000	-1.17980659E+002	
-1.30761991E+000	-1.17938392E+002	
-1.28690661E+000	-1.17948766E+002	
-1.26619330E+000	-1.17940528E+002	
-1.24548000E+000	-1.17993624E+002	
-1.22476669E+000	-1.18011099E+002	
-1.20405339E+000	-1.17915212E+002	
-1.18334008E+000	-1.17908950E+002	
-1.16262678E+000	-1.17980642E+002	
-1.14191347E+000	-1.18012696E+002	
-1.12120017E+000	-1.18003818E+002	
-1.10048686E+000	-1.17970609E+002	
-1.07977356E+000	-1.17979840E+002	
-1.05906025E+000	-1.18014633E+002	
-1.03834694E+000	-1.17989143E+002	
-1.01763364E+000	-1.17928190E+002	
-9.96920334E-001	-1.17830112E+002	
-9.76207029E-001	-1.17788849E+002	
-9.55493724E-001	-1.17806628E+002	
-9.34780418E-001	-1.17818542E+002	
-9.14067113E-001	-1.17860279E+002	
-8.93353808E-001	-1.17837543E+002	
-8.72640502E-001	-1.17819812E+002	
-8.51927197E-001	-1.17855237E+002	
-8.31213892E-001	-1.17887692E+002	
-8.10500586E-001	-1.17942835E+002	
-7.89787281E-001	-1.17960384E+002	
-7.69073976E-001	-1.17970525E+002	
-7.48360671E-001	-1.17959432E+002	
-7.27647365E-001	-1.17949653E+002	
-7.06934060E-001	-1.17979247E+002	
-6.86220755E-001	-1.18001753E+002	
-6.65507449E-001	-1.18025687E+002	
-6.44794144E-001	-1.18019085E+002	
-6.24080839E-001	-1.17987834E+002	
-6.03367533E-001	-1.17990772E+002	
-5.82654228E-001	-1.17968954E+002	
-5.61940923E-001	-1.17918333E+002	
-5.41227617E-001	-1.17887435E+002	
-5.20514312E-001	-1.17916314E+002	
-4.99801007E-001	-1.18026642E+002	
-4.79087701E-001	-1.18103480E+002	
-4.58374396E-001	-1.18135716E+002	
-4.37661091E-001	-1.18107031E+002	
-4.16947785E-001	-1.18087114E+002	
-3.96234480E-001	-1.18090438E+002	
-3.75521175E-001	-1.18098640E+002	
-3.54807869E-001	-1.18103339E+002	
-3.34094564E-001	-1.18110323E+002	
-3.13381259E-001	-1.18131817E+002	
-2.92667954E-001	-1.18126082E+002	
-2.71954648E-001	-1.18089734E+002	
-2.51241343E-001	-1.08091048E+002	
-2.30528038E-001	-1.07917883E+002	
-2.09814732E-001	-1.07916244E+002	
-1.89101427E-001	-1.07908213E+002	
-1.68388122E-001	-1.07896371E+002	
-1.47674816E-001	-1.07892030E+002	
-1.26961511E-001	-1.07890502E+002	
-1.06248206E-001	-1.07878054E+002	
-8.55349003E-002	-1.07876072E+002	
-6.48215950E-002	-1.07874378E+002	
-4.41082897E-002	-1.07877552E+002	
-2.33949844E-002	-1.07874773E+002	
-2.68167905E-003	-1.07871538E+002	
1.80316263E-002	-1.07863045E+002	
3.87449316E-002	-1.07857211E+002	
5.94582369E-002	-1.07857222E+002	
8.01715422E-002	-1.07860577E+002	
1.00884848E-001	-1.07858742E+002	
1.21598153E-001	-1.07851074E+002	
1.42311458E-001	-1.07846481E+002	
1.63024763E-001	-1.07844007E+002	
1.83738069E-001	-1.07837863E+002	
2.04451374E-001	-1.07829462E+002	
2.25164679E-001	-1.07830616E+002	
2.45877985E-001	-1.13310318E+002	
2.66591290E-001	-1.17267407E+002	
2.87304595E-001	-1.17268508E+002	
3.08017901E-001	-1.17328158E+002	
3.28731206E-001	-1.17365424E+002	
3.49444511E-001	-1.17380889E+002	
3.70157817E-001	-1.17409911E+002	
3.90871122E-001	-1.17494472E+002	
4.11584427E-001	-1.17459086E+002	
4.32297733E-001	-1.17434370E+002	
4.53011038E-001	-1.17434213E+002	
4.73724343E-001	-1.17449472E+002	
4.94437649E-001	-1.17448716E+002	
5.15150954E-001	-1.17485703E+002	
5.35864259E-001	-1.17492016E+002	
5.56577565E-001	-1.17537396E+002	
5.77290870E-001	-1.17470856E+002	
5.98004175E-001	-1.17447429E+002	
6.18717481E-001	-1.17489125E+002	
6.39430786E-001	-1.17512116E+002	
6.60144091E-001	-1.17497265E+002	
6.80857396E-001	-1.17530558E+002	
7.01570702E-001	-1.17551807E+002	
7.22284007E-001	-1.17550117E+002	
7.42997312E-001	-1.17521470E+002	
7.63710618E-001	-1.17510567E+002	
7.84423923E-001	-1.17475152E+002	
8.05137228E-001	-1.17445991E+002	
8.25850534E-001	-1.17440529E+002	
8.46563839E-001	-1.17409788E+002	
8.67277144E-001	-1.17383440E+002	
8.87990450E-001	-1.17375199E+002	
9.08703755E-001	-1.17465660E+002	
9.29417060E-001	-1.17519728E+002	
9.50130366E-001	-1.17538440E+002	
9.70843671E-001	-1.17490757E+002	
9.91556976E-001	-1.17479423E+002	
1.01227028E+000	-1.17494091E+002	
1.03298359E+000	-1.17496329E+002	
1.05369689E+000	-1.17462034E+002	
1.07441020E+000	-1.17478002E+002	
1.09512350E+000	-1.17484980E+002	
1.11583681E+000	-1.17545680E+002	
1.13655011E+000	-1.17533383E+002	
1.15726342E+000	-1.17520476E+002	
1.17797672E+000	-1.17491091E+002	
1.19869003E+000	-1.17548296E+002	
1.21940333E+000	-1.17527147E+002	
1.24011664E+000	-1.17544483E+002	
1.26082995E+000	-1.17523862E+002	
1.28154325E+000	-1.17539241E+002	
1.30225656E+000	-1.17540888E+002	
1.32296986E+000	-1.17534467E+002	
1.34368317E+000	-1.17555648E+002	
1.36439647E+000	-1.17616817E+002	
1.38510978E+000	-1.17605616E+002	
1.40582308E+000	-1.17541617E+002	
1.42653639E+000	-1.17523627E+002	
1.44724969E+000	-1.17491879E+002	
1.46796300E+000	-1.17503419E+002	
1.48867630E+000	-1.17526034E+002	
1.50938961E+000	-1.17539239E+002	
1.53010291E+000	-1.17545988E+002	
1.55081622E+000	-1.17549316E+002	
1.57152953E+000	-1.17562394E+002	
1.59224283E+000	-1.17529598E+002	
1.61295614E+000	-1.17483624E+002	
1.63366944E+000	-1.17431452E+002	
1.65438275E+000	-1.17416735E+002	
1.67509605E+000	-1.17408500E+002	
1.69580936E+000	-1.17349843E+002	
1.71652266E+000	-1.17364947E+002	
1.73723597E+000	-1.17310527E+002	
1.75794927E+000	-1.17285201E+002	
1.77866258E+000	-1.17305819E+002	
1.79937588E+000	-1.17329781E+002	
1.82008919E+000	-1.17363640E+002	
1.84080249E+000	-1.17368096E+002	
